"Time (s)","Acceleration x (m/s^2)","Acceleration y (m/s^2)","Acceleration z (m/s^2)"
0.000000000E0,-4.207097054E0,8.417338371E0,5.218957901E0
9.990313000E-3,-3.143495083E0,8.589814186E0,4.361369133E0
1.248786500E-2,-3.071630001E0,8.791035652E0,4.380533218E0
1.498541700E-2,-2.961436987E0,8.829363823E0,4.318250179E0
1.748296900E-2,-2.836870909E0,8.929974556E0,4.313458920E0
1.998052100E-2,-2.755424023E0,9.006630898E0,4.342205048E0
2.246250000E-2,-2.688349962E0,9.083287239E0,4.299086094E0
2.496010500E-2,-2.645231009E0,9.116824150E0,4.308668137E0
2.745765700E-2,-2.659604073E0,9.227017403E0,4.351787090E0
2.996661500E-2,-2.688349962E0,9.227017403E0,4.414070129E0
3.247557300E-2,-2.721887112E0,9.222226143E0,4.452397823E0
3.497312500E-2,-2.827289104E0,9.222226143E0,4.495516777E0
3.747073000E-2,-2.875199080E0,9.265344620E0,4.600918770E0
3.996828200E-2,-2.908735991E0,9.145569801E0,4.691947937E0
4.246583400E-2,-2.956645966E0,9.145569801E0,4.687157154E0
4.496338600E-2,-2.894362926E0,9.126405716E0,4.711112022E0
4.746099000E-2,-2.736259937E0,9.145569801E0,4.687157154E0
4.995854200E-2,-2.640439987E0,9.188689232E0,4.591337204E0
5.245614600E-2,-2.535037994E0,9.265344620E0,4.476353168E0
5.495369800E-2,-2.458381891E0,9.380329132E0,4.332623005E0
5.745125000E-2,-2.410471916E0,9.514476776E0,4.083490849E0
5.994880300E-2,-2.386517048E0,9.725280762E0,3.915806055E0
6.253135500E-2,-2.252368927E0,9.945667267E0,3.824776888E0
6.502890700E-2,-2.123012066E0,1.023791790E1,3.594809055E0
6.752651100E-2,-1.974491000E0,1.059724331E1,3.479825020E0
7.002406300E-2,-1.778059959E0,1.100447845E1,3.398377895E0
7.252166700E-2,-1.447481036E0,1.135901165E1,3.182782888E0
7.501921900E-2,-1.045037031E0,1.175666523E1,3.015098095E0
7.751677100E-2,-5.851010084E-1,1.220701885E1,2.880949974E0
8.001432300E-2,-2.066120058E-1,1.261425400E1,2.674937010E0
8.251192800E-2,2.533240020E-1,1.298795223E1,2.464133024E0
8.500948000E-2,7.132599950E-1,1.338560486E1,2.229373932E0
8.750703200E-2,1.110913038E0,1.380721283E1,1.927541018E0
9.000458400E-2,1.292971015E0,1.443962479E1,1.592170954E0
9.255739600E-2,1.551684976E0,1.507203674E1,1.328665972E0
9.505500000E-2,1.877472997E0,1.557030106E1,1.074743032E0
9.755255300E-2,2.193679094E0,1.612605667E1,8.543570042E-1
1.000501050E-1,2.610496044E0,1.666264915E1,6.052250266E-1
1.025477090E-1,3.008148909E0,1.714653969E1,4.279580116E-1
1.050452610E-1,3.424966097E0,1.750586510E1,3.177649975E-1
1.075428130E-1,3.774708986E0,1.774541473E1,2.554819882E-1
1.100403650E-1,4.090915203E0,1.795142746E1,4.040029943E-1
1.125379690E-1,4.522105217E0,1.810474014E1,7.633280158E-1
1.150355210E-1,4.900594234E0,1.824847031E1,1.285547018E0
1.175330730E-1,5.221590996E0,1.848322868E1,1.879631042E0
1.200306250E-1,5.365321159E0,1.875152588E1,2.440177917E0
1.225866670E-1,5.489887238E0,1.907252121E1,2.919277906E0
1.250842190E-1,5.556961060E0,1.922583389E1,3.288184881E0
1.275817710E-1,5.441977024E0,1.934081841E1,3.498989105E0
1.300793230E-1,5.259919167E0,1.929769897E1,3.661883116E0
1.325769280E-1,5.140143871E0,1.903898430E1,3.719374895E0
1.350744800E-1,4.819147110E0,1.847843742E1,3.642719030E0
1.375720320E-1,4.541268826E0,1.764480400E1,3.417541981E0
1.400695840E-1,4.263391018E0,1.646621895E1,3.043843985E0
1.425671880E-1,3.928020954E0,1.510078335E1,2.650981903E0
1.450647400E-1,3.626188040E0,1.362515545E1,2.243746996E0
1.475622920E-1,3.305191040E0,1.227409267E1,1.755064964E0
1.500598440E-1,3.051268101E0,1.106196976E1,1.228055000E0
1.526459900E-1,2.778181076E0,1.002232265E1,8.112379909E-1
1.551435420E-1,2.543421984E0,9.021003723E0,3.800480068E-1
1.576410940E-1,2.251171112E0,8.149042130E0,1.558999997E-3
1.601386460E-1,1.982874990E0,7.435183048E0,-2.763189971E-1
1.626362500E-1,1.609176993E0,6.831517220E0,-4.104669988E-1
1.651338030E-1,1.235478997E0,6.390745163E0,-5.637789965E-1
1.676313550E-1,9.384369850E-1,6.031420231E0,-7.266730070E-1
1.701289590E-1,7.324240208E-1,5.686468124E0,-8.464480042E-1
1.726265110E-1,4.401730001E-1,5.360680103E0,-9.470589757E-1
1.751240630E-1,3.491440117E-1,4.958236217E0,-1.057252049E0
1.776216150E-1,2.485329956E-1,4.656403065E0,-1.085998058E0
1.801192190E-1,8.563899994E-2,4.426434994E0,-1.028506041E0
1.826382300E-1,-5.990000209E-4,4.234795094E0,-8.895670176E-1
1.851357820E-1,2.335599996E-2,4.067110062E0,-8.081200123E-1
1.876333340E-1,1.527130008E-1,3.909007072E0,-6.500170231E-1
1.901308860E-1,2.437420040E-1,3.774858952E0,-4.344219863E-1
1.926284900E-1,3.395619988E-1,3.698203087E0,-2.619459927E-1
1.951260420E-1,3.922629952E-1,3.664665937E0,5.426000059E-2
1.976235940E-1,3.683080077E-1,3.746113062E0,4.327490032E-1
2.001211980E-1,3.635169864E-1,3.813186884E0,8.064470291E-1
2.026187500E-1,3.874720037E-1,3.942543983E0,1.175354004E0
2.051163030E-1,4.593369961E-1,4.153347969E0,1.573006988E0
2.076138550E-1,5.359929800E-1,4.364151955E0,1.937122941E0
2.101114070E-1,7.659609914E-1,4.622866154E0,2.258120060E0
2.126627610E-1,1.005511045E0,4.934280872E0,2.550370932E0
2.151603650E-1,1.278597951E0,5.331933975E0,2.789921045E0
2.176579170E-1,1.542103052E0,5.758333206E0,2.957606077E0
2.201555210E-1,1.738533974E0,6.199104786E0,3.163619041E0
2.226530730E-1,1.896636963E0,6.534474850E0,3.455869913E0
2.251506250E-1,2.126605034E0,6.889008999E0,3.623554945E0
2.276481780E-1,2.222424984E0,7.315408230E0,3.810404062E0
2.301457300E-1,2.366154909E0,7.727434158E0,3.978089094E0
2.326433340E-1,2.648823977E0,8.081968307E0,4.025999069E0
2.351408860E-1,3.027312994E0,8.383801460E0,4.160147190E0
2.376384380E-1,3.314773083E0,8.709589005E0,4.212848186E0
2.401360420E-1,3.573487043E0,8.982675552E0,4.303876877E0
2.426925530E-1,3.688471079E0,9.332419395E0,4.447607040E0
2.451901050E-1,3.966348886E0,9.634251595E0,4.629664898E0
2.476876570E-1,4.220272064E0,9.835474014E0,4.739858150E0
2.501852090E-1,4.560432911E0,9.912130356E0,4.816514015E0
2.526828130E-1,5.082652092E0,9.869010925E0,4.845260143E0
2.551803650E-1,5.643198967E0,9.667789459E0,4.701529980E0
2.576779170E-1,6.074388981E0,9.413866043E0,4.481143951E0
2.601755210E-1,6.481624126E0,9.222226143E0,4.160147190E0
2.626730730E-1,6.745129108E0,9.150361061E0,3.963716030E0
2.651706250E-1,6.927186966E0,9.227017403E0,4.059535980E0
2.676681780E-1,7.329630852E0,9.088077545E0,4.102654934E0
2.701657300E-1,7.655418873E0,8.858110428E0,4.160147190E0
2.727501050E-1,7.573972225E0,8.800618172E0,4.155355930E0
2.752476570E-1,7.353586197E0,8.733544350E0,4.093072891E0
2.777452090E-1,6.979887962E0,8.647306442E0,3.973298073E0
2.802428130E-1,6.519951820E0,8.446084023E0,3.915806055E0
2.827403650E-1,6.107925892E0,8.182579041E0,4.011625767E0
2.852379170E-1,5.715064049E0,8.230488777E0,4.021207809E0
2.877354690E-1,5.441977024E0,8.326309204E0,4.016417027E0
2.902330730E-1,4.934131145E0,8.374218941E0,3.992461920E0
2.927306250E-1,4.359210968E0,8.484412193E0,3.997252941E0
2.952281780E-1,3.937602997E0,8.637723923E0,3.978089094E0
2.977257300E-1,3.583069086E0,8.738334656E0,3.887059927E0
3.002233340E-1,3.295608997E0,8.882064819E0,3.843940973E0
3.027739070E-1,2.979403019E0,8.997049332E0,3.800822020E0
3.052714590E-1,2.653614998E0,9.092868805E0,3.867896080E0
3.077690110E-1,2.418855906E0,9.131196976E0,3.891850948E0
3.102666150E-1,2.255961895E0,9.131196976E0,3.762494087E0
3.127641670E-1,2.232007027E0,9.212643623E0,3.599600077E0
3.152617190E-1,2.232007027E0,9.246180534E0,3.465451956E0
3.177592710E-1,2.184097052E0,9.188689232E0,3.326513052E0
3.202568750E-1,2.150559902E0,9.174316406E0,3.149245977E0
3.227544280E-1,2.107440948E0,9.159942627E0,3.000725031E0
3.252519800E-1,2.054739952E0,9.083287239E0,2.809084892E0
3.277495320E-1,1.963711023E0,9.035376549E0,2.550370932E0
3.302471360E-1,1.882264018E0,8.958721161E0,2.397058964E0
3.327661460E-1,1.891845942E0,8.843736649E0,2.277283907E0
3.352637500E-1,1.934965014E0,8.743125916E0,2.061688900E0
3.377613030E-1,1.992457032E0,8.604187012E0,1.874840021E0
3.402588550E-1,2.021203041E0,8.503576279E0,1.687991023E0
3.427564590E-1,1.978083968E0,8.426919937E0,1.592170954E0
3.452540110E-1,1.958920002E0,8.326309204E0,1.529888034E0
3.477515630E-1,1.891845942E0,8.350263596E0,1.424486041E0
3.502491150E-1,1.853518009E0,8.311936378E0,1.275964975E0
3.527467190E-1,1.834354043E0,8.383801460E0,1.247218966E0
3.552442710E-1,1.810399055E0,8.436502457E0,1.213682055E0
3.577418230E-1,1.805608034E0,8.513157845E0,1.242427945E0
3.602393750E-1,1.805608034E0,8.652096748E0,1.271173954E0
3.627977610E-1,1.834354043E0,8.728753090E0,1.237637043E0
3.652953130E-1,1.887055039E0,8.848527908E0,1.237637043E0
3.677928650E-1,1.867890954E0,8.901228905E0,1.247218966E0
3.702904170E-1,1.867890954E0,8.977885246E0,1.228055000E0
3.727880210E-1,1.930173993E0,9.059331894E0,1.309502006E0
3.752855730E-1,1.944547057E0,9.174316406E0,1.352620959E0
3.777831250E-1,1.958920002E0,9.279718399E0,1.453232050E0
3.802806780E-1,1.930173993E0,9.342000961E0,1.592170954E0
3.827782820E-1,1.958920002E0,9.485731125E0,1.592170954E0
3.852758340E-1,1.872681975E0,9.619878769E0,1.668827057E0
3.877733860E-1,1.796025991E0,9.763608932E0,1.822139025E0
3.902709380E-1,1.791234970E0,9.907339096E0,1.937122941E0
3.928572400E-1,1.839144945E0,1.000315857E1,2.042525053E0
3.953547920E-1,1.843935966E0,1.005585957E1,2.133553982E0
3.978523440E-1,1.791234970E0,1.014688873E1,2.301239014E0
4.003498960E-1,1.767279983E0,1.008939743E1,2.444968939E0
4.028475000E-1,1.810399055E0,1.006065083E1,2.459342003E0
4.053450530E-1,1.906219006E0,9.974412918E0,2.507251978E0
4.078426050E-1,1.934965014E0,9.907339096E0,2.483297110E0
4.103402090E-1,1.925382972E0,9.821101189E0,2.516834021E0
4.128377610E-1,1.997248054E0,9.754027367E0,2.516834021E0
4.153353130E-1,2.016412020E0,9.624670029E0,2.512042999E0
4.178329170E-1,2.006829977E0,9.466567039E0,2.488087893E0
4.203304690E-1,2.011620998E0,9.337209702E0,2.488087893E0
4.228482820E-1,2.002038956E0,9.227017403E0,2.559952974E0
4.253458340E-1,1.992457032E0,9.131196976E0,2.607862949E0
4.278433860E-1,1.920591950E0,9.059331894E0,2.636609077E0
4.303409380E-1,1.925382972E0,8.992258072E0,2.727638006E0
4.328385420E-1,1.973292947E0,8.891647339E0,2.761174917E0
4.353360940E-1,1.906219006E0,8.853319168E0,2.789921045E0
4.378336460E-1,1.901427984E0,8.805409431E0,2.828248978E0
4.403311980E-1,1.915801048E0,8.776662827E0,2.871367931E0
4.428288030E-1,1.872681975E0,8.767081261E0,2.995934010E0
4.453263550E-1,1.834354043E0,8.781454086E0,2.971978903E0
4.478239070E-1,1.796025991E0,8.795826912E0,2.981560946E0
4.503214590E-1,1.805608034E0,8.771871567E0,3.034261942E0
4.529098960E-1,1.767279983E0,8.834155083E0,3.010307074E0
4.554074480E-1,1.738533974E0,8.891647339E0,3.034261942E0
4.579050000E-1,1.748116016E0,8.886856079E0,3.015098095E0
4.604025530E-1,1.700206041E0,8.944348335E0,3.039052963E0
4.629001570E-1,1.676251054E0,8.958721161E0,3.005516052E0
4.653977090E-1,1.700206041E0,9.097660065E0,2.933650970E0
4.678952610E-1,1.666669011E0,9.088077545E0,2.871367931E0
4.703928650E-1,1.666669011E0,9.150361061E0,2.847413063E0
4.728904170E-1,1.633131981E0,9.222226143E0,2.746802092E0
4.753879690E-1,1.633131981E0,9.308464050E0,2.727638006E0
4.778855210E-1,1.566058040E0,9.342000961E0,2.636609077E0
4.803831250E-1,1.585222006E0,9.385120392E0,2.598280907E0
4.829005210E-1,1.551684976E0,9.428238869E0,2.603071928E0
4.853980730E-1,1.522938967E0,9.452194214E0,2.579117060E0
4.878956250E-1,1.537312031E0,9.504895210E0,2.502460957E0
4.903931780E-1,1.556475997E0,9.562387466E0,2.444968939E0
4.928907820E-1,1.585222006E0,9.548013687E0,2.459342003E0
4.953883340E-1,1.575639963E0,9.528849602E0,2.425805092E0
4.978858860E-1,1.594804049E0,9.514476776E0,2.377895117E0
5.003834380E-1,1.628340960E0,9.490522385E0,2.377895117E0
5.028810420E-1,1.590013027E0,9.447402954E0,2.392267942E0
5.053785940E-1,1.532521009E0,9.413866043E0,2.397058964E0
5.078761460E-1,1.522938967E0,9.423447609E0,2.406641006E0
5.103736980E-1,1.398373008E0,9.389910698E0,2.444968939E0
5.129611460E-1,1.350463033E0,9.365956306E0,2.516834021E0
5.154586980E-1,1.297762036E0,9.308464050E0,2.574326038E0
5.179562500E-1,1.201941967E0,9.246180534E0,2.612653971E0
5.204538030E-1,1.139659047E0,9.217434883E0,2.665354967E0
5.229514070E-1,1.024675012E0,9.212643623E0,2.727638006E0
5.254489590E-1,9.288550019E-1,9.188689232E0,2.813875914E0
5.279465110E-1,8.186619878E-1,9.164733887E0,2.885740995E0
5.304441150E-1,7.324240208E-1,9.116824150E0,2.976769924E0
5.329416670E-1,6.078580022E-1,9.078495979E0,3.034261942E0
5.354392190E-1,5.216199756E-1,9.064123154E0,3.096544981E0
5.379367710E-1,4.401730001E-1,8.997049332E0,3.211529016E0
5.404343750E-1,3.156070113E-1,8.992258072E0,3.364840984E0
5.429541670E-1,2.006230056E-1,8.963512421E0,3.460660934E0
5.454527090E-1,8.084800094E-2,8.963512421E0,3.561271906E0
5.479511980E-1,-3.892700002E-2,9.035376549E0,3.661883116E0
5.504497400E-1,-1.443289965E-1,9.059331894E0,3.805613041E0
5.529482300E-1,-2.161940038E-1,9.092868805E0,3.920597076E0
5.554467710E-1,-2.688950002E-1,9.121615410E0,4.006834984E0
5.579452610E-1,-2.880589962E-1,9.150361061E0,4.117028236E0
5.604438030E-1,-3.359690011E-1,9.193479538E0,4.241593838E0
5.629422920E-1,-3.790880144E-1,9.217434883E0,4.332623005E0
5.654408340E-1,-3.551329970E-1,9.241390228E0,4.485935211E0
5.679393750E-1,-3.503420055E-1,9.212643623E0,4.600918770E0
5.704378650E-1,-3.790880144E-1,9.265344620E0,4.725484848E0
5.730109380E-1,-3.982520103E-1,9.222226143E0,4.806931973E0
5.755094280E-1,-4.174160063E-1,9.164733887E0,4.859632969E0
5.780079690E-1,-4.174160063E-1,9.145569801E0,4.878797054E0
5.805064590E-1,-4.365800023E-1,9.059331894E0,4.864424229E0
5.830050000E-1,-4.269979894E-1,8.973093987E0,4.883587837E0
5.855035420E-1,-4.413709939E-1,8.882064819E0,4.787767887E0
5.880020320E-1,-4.701170027E-1,8.819782257E0,4.629664898E0
5.905005730E-1,-4.317890108E-1,8.743125916E0,4.485935211E0
5.929990630E-1,-4.413709939E-1,8.700007439E0,4.428442955E0
5.954976050E-1,-4.749079943E-1,8.628142357E0,4.222430229E0
5.979960940E-1,-5.036540031E-1,8.585022926E0,4.054745197E0
6.004946360E-1,-4.653260112E-1,8.517949104E0,3.963716030E0
6.030069800E-1,-4.892809987E-1,8.436502457E0,3.848731995E0
6.055055210E-1,-3.982520103E-1,8.350263596E0,3.781657934E0
6.080040110E-1,-3.168050051E-1,8.201743126E0,3.719374895E0
6.105025530E-1,-2.641040087E-1,8.010103226E0,3.575644970E0
6.130010420E-1,-1.012099981E-1,7.856791019E0,3.465451956E0
6.154995840E-1,7.126600295E-2,7.655569077E0,3.369632006E0
6.179980730E-1,1.958319992E-1,7.449555874E0,3.292975903E0
6.204966150E-1,2.964429855E-1,7.286662102E0,3.225902081E0
6.229951570E-1,3.922629952E-1,7.032739162E0,3.106127024E0
6.254936460E-1,4.641279876E-1,6.869844913E0,2.991142988E0
6.279921880E-1,5.072469711E-1,6.692577839E0,2.876158953E0
6.304906780E-1,5.024560094E-1,6.510519981E0,2.727638006E0
6.330318230E-1,6.222310066E-1,6.385953903E0,2.579117060E0
6.355303650E-1,6.509770155E-1,6.275761127E0,2.421014071E0
6.380288550E-1,7.036780119E-1,6.179941177E0,2.339566946E0
6.405273960E-1,7.515879869E-1,6.165567875E0,2.210210085E0
6.430258860E-1,8.042889833E-1,6.074539185E0,2.028151989E0
6.455244280E-1,8.521990180E-1,6.031420231E0,1.965868950E0
6.480229170E-1,8.953179717E-1,6.050583839E0,1.898795009E0
6.505214590E-1,9.001089931E-1,6.108076096E0,1.817348003E0
6.530200000E-1,9.480190277E-1,6.127240181E0,1.740692019E0
6.555184900E-1,9.432280064E-1,6.194314003E0,1.630499005E0
6.580170320E-1,9.623919725E-1,6.251805782E0,1.582589030E0
6.605155210E-1,9.863470197E-1,6.314088821E0,1.529888034E0
6.630602610E-1,1.077376008E0,6.429072857E0,1.467604995E0
6.655588030E-1,1.182778001E0,6.438654900E0,1.481978059E0
6.680572920E-1,1.403164029E0,6.534474850E0,1.568215966E0
6.705558340E-1,1.590013027E0,6.615921974E0,1.625707984E0
6.730543230E-1,1.815189958E0,6.601549149E0,1.764647007E0
6.755528650E-1,2.121814013E0,6.572803020E0,1.999405980E0
6.780513550E-1,2.380527973E0,6.539266109E0,2.191046000E0
6.805498960E-1,2.644032955E0,6.524892807E0,2.401849985E0
6.830483860E-1,2.878792048E0,6.467401028E0,2.583908081E0
6.855469280E-1,2.984194040E0,6.419490814E0,2.713264942E0
6.880454690E-1,3.017730951E0,6.328462124E0,2.746802092E0
6.905439590E-1,3.003357887E0,6.270969868E0,2.804294109E0
6.930847400E-1,2.936284065E0,6.175149918E0,2.775547981E0
6.955832820E-1,2.893165112E0,6.036211014E0,2.737220049E0
6.980817710E-1,2.912328959E0,5.849361897E0,2.665354967E0
7.005803130E-1,2.988985062E0,5.624185085E0,2.555161953E0
7.030788030E-1,3.046477079E0,5.413381100E0,2.516834021E0
7.055773440E-1,3.099178076E0,5.240904808E0,2.425805092E0
7.080758340E-1,3.147088051E0,4.996563911E0,2.401849985E0
7.105743750E-1,3.204580069E0,4.833670139E0,2.421014071E0
7.130729170E-1,3.252490044E0,4.737850189E0,2.449759960E0
7.155714070E-1,3.228534937E0,4.618074894E0,2.377895117E0
7.180699480E-1,3.333936930E0,4.584537983E0,2.411432028E0
7.205684380E-1,3.386637926E0,4.670775890E0,2.449759960E0
7.231090110E-1,3.396219969E0,4.819296837E0,2.382685900E0
7.256075530E-1,3.463294029E0,5.078011036E0,2.325193882E0
7.281060420E-1,3.472876072E0,5.351098061E0,2.205419064E0
7.306045840E-1,3.549531937E0,5.700840950E0,2.056898117E0
7.331030730E-1,3.688471079E0,6.060165882E0,1.989824057E0
7.356016150E-1,3.698052883E0,6.615921974E0,1.898795009E0
7.381001050E-1,3.726799011E0,7.257915974E0,1.788601995E0
7.405986460E-1,3.674098015E0,8.038848877E0,1.644871950E0
7.430971880E-1,3.444129944E0,8.977885246E0,1.419695020E0
7.455956780E-1,3.324354887E0,1.008460617E1,1.271173954E0
7.480942190E-1,3.290817976E0,1.116737175E1,1.189726949E0
7.505927090E-1,3.142297029E0,1.217827320E1,1.132235050E0
7.531321360E-1,3.132714987E0,1.288734055E1,1.194517970E0
7.556306780E-1,3.036895037E0,1.337602329E1,1.448441029E0
7.581291670E-1,3.017730951E0,1.411862755E1,1.783810973E0
7.606277090E-1,3.166251898E0,1.491393375E1,2.406641006E0
7.631261980E-1,3.324354887E0,1.553676414E1,3.168410063E0
7.656247400E-1,3.343518972E0,1.623145866E1,3.891850948E0
7.681232300E-1,3.439338923E0,1.653808212E1,4.663201809E0
7.706217710E-1,3.755544901E0,1.730464363E1,5.602238178E0
7.731203130E-1,3.693262100E0,1.777416039E1,6.555646896E0
7.756188030E-1,3.424966097E0,1.785560799E1,7.269505978E0
7.781173440E-1,3.324354887E0,1.821014214E1,7.964200974E0
7.806158340E-1,3.295608997E0,1.831554413E1,8.361853600E0
7.831610940E-1,3.262072086E0,1.800892067E1,8.567867279E0
7.856596360E-1,3.180624962E0,1.759689331E1,8.476838112E0
7.881581250E-1,3.228534937E0,1.721361351E1,7.988155842E0
7.906566670E-1,2.826091051E0,1.697885513E1,7.154521942E0
7.931551570E-1,1.911010027E0,1.696927261E1,6.086129189E0
7.956536980E-1,1.177986979E0,1.688303566E1,5.103973866E0
7.981521880E-1,7.467970252E-1,1.674888611E1,4.088282108E0
8.006507300E-1,3.778899908E-1,1.675367737E1,2.928859949E0
8.031492710E-1,-2.114029974E-1,1.691657257E1,1.539469957E0
8.056477610E-1,-9.635900259E-1,1.719445038E1,-2.092449963E-1
8.081462500E-1,-2.031982899E0,1.774541473E1,-2.374777079E0
8.106447920E-1,-2.817707062E0,1.848322868E1,-4.837350845E0
8.131850530E-1,-3.795070887E0,1.940310097E1,-6.619603157E0
8.156835940E-1,-4.336453915E0,2.024152565E1,-6.887898922E0
8.181820840E-1,-4.221469879E0,2.065834236E1,-6.974136829E0
8.206806250E-1,-4.187932968E0,2.067750740E1,-7.026837826E0
8.231791150E-1,-4.029829979E0,2.039962959E1,-6.725005150E0
8.256776570E-1,-3.617804050E0,1.981033516E1,-6.365680218E0
8.281761460E-1,-3.052465916E0,1.885692787E1,-6.154876232E0
8.306746880E-1,-2.170922041E0,1.755377579E1,-5.733267784E0
8.331732300E-1,-1.145648003E0,1.582422447E1,-5.282914162E0
8.356717190E-1,-3.168050051E-1,1.394615173E1,-4.822978020E0
8.381702610E-1,2.868610024E-1,1.218785477E1,-4.319922924E0
8.406687500E-1,4.305909872E-1,1.087991238E1,-3.855195999E0
8.432144800E-1,3.443529904E-1,9.916920662E0,-3.471915960E0
8.457130210E-1,4.731100053E-2,9.370746613E0,-3.232366085E0
8.482115110E-1,-1.922390014E-1,8.805409431E0,-3.016771078E0
8.507100530E-1,-4.701170027E-1,8.316726685E0,-2.734102011E0
8.532085420E-1,-6.665480137E-1,7.914282799E0,-2.298120975E0
8.557070840E-1,-8.629789948E-1,7.531002998E0,-1.804648042E0
8.582055730E-1,-9.540079832E-1,7.157304764E0,-1.368667006E0
8.607041150E-1,-8.965160251E-1,6.812353134E0,-8.991490006E-1
8.632026570E-1,-8.773519993E-1,6.515310764E0,-5.110780001E-1
8.657011460E-1,-8.342329860E-1,6.237432957E0,-1.517529935E-1
8.681996880E-1,-8.342329860E-1,5.911644936E0,3.081830144E-1
