"Time (s)","X (m/s^2)","Y (m/s^2)","Z (m/s^2)"
0.000000000E0,2.342778168E0,-1.161719193E1,-1.602268066E0
1.001600000E-2,1.022823029E0,-1.034992722E1,-9.351054382E-1
2.003300001E-2,1.369651794E-1,-9.331295471E0,-3.659889221E-1
3.005000000E-2,-1.904040527E-1,-8.584049377E0,1.660047913E-1
4.006600000E-2,4.834945679E-2,-8.256231079E0,3.183879089E-1
5.008300001E-2,-3.323089600E-2,-8.159681854E0,1.190025330E-1
6.010000000E-2,-9.714797974E-2,-8.250243530E0,-8.861572266E-2
7.011600000E-2,-1.483415222E-1,-8.206085358E0,-1.242416382E-2
8.013300001E-2,-4.544549561E-1,-8.359665985E0,3.513194275E-1
9.015000000E-2,-5.668711853E-1,-8.764124908E0,8.741821289E-2
1.001660000E-1,-6.966513062E-1,-9.181756439E0,-2.588117981E-1
1.101830000E-1,-9.635462952E-1,-9.627529449E0,-5.966592407E-1
1.202000000E-1,-1.123114471E0,-9.899214478E0,-7.328759766E-1
1.302160000E-1,-1.076261902E0,-9.884994049E0,-7.036866760E-1
1.402330000E-1,-8.875044250E-1,-9.794881439E0,-5.207670593E-1
1.502500000E-1,-6.444099426E-1,-9.520352325E0,-1.657054138E-1
1.602660000E-1,-2.989283752E-1,-9.499545593E0,1.936972046E-1
1.702830000E-1,8.966354370E-2,-9.649833069E0,3.746708679E-1
1.803000000E-1,4.680766296E-1,-9.732910309E0,5.206173706E-1
1.903160000E-1,9.024732971E-1,-9.830058289E0,6.837780762E-1
2.003330000E-1,1.478924561E0,-1.007075775E1,8.500822449E-1
2.103500000E-1,2.149230652E0,-1.040740768E1,9.671388245E-1
2.203660000E-1,2.806962891E0,-1.064571213E1,9.909393311E-1
2.303830000E-1,3.339255981E0,-1.073851913E1,9.166937256E-1
2.403990000E-1,3.609294434E0,-1.082668579E1,7.131170654E-1
2.504160000E-1,3.537443848E0,-1.085018692E1,5.596861267E-1
2.604330000E-1,3.218157806E0,-1.082758392E1,4.634362793E-1
2.704490000E-1,2.794538727E0,-1.086066513E1,3.583547974E-1
2.804660000E-1,2.385589142E0,-1.092443253E1,3.131488037E-1
2.904830000E-1,2.021845551E0,-1.090617050E1,3.579057312E-1
3.004990000E-1,1.713486786E0,-1.080303497E1,4.218228149E-1
3.105160000E-1,1.476679230E0,-1.058808197E1,4.998106384E-1
3.205330000E-1,1.339115295E0,-1.041953247E1,6.457571411E-1
3.305490000E-1,1.312021637E0,-1.034169434E1,7.822732544E-1
3.405660000E-1,1.311422882E0,-1.051772827E1,8.412506104E-1
3.505830000E-1,1.300345917E0,-1.083357147E1,8.162525940E-1
3.605990000E-1,1.047371979E0,-1.109013794E1,6.004014587E-1
3.706160000E-1,3.484753418E-1,-1.109747269E1,9.175918579E-2
3.806330000E-1,-7.897576904E-1,-1.101454514E1,-4.748126221E-1
3.906490000E-1,-1.992656250E0,-1.127754822E1,-9.764195251E-1
4.006660000E-1,-2.857258301E0,-1.165835632E1,-1.451681213E0
4.106830000E-1,-3.382815399E0,-1.181657730E1,-1.813329163E0
4.206990000E-1,-3.695515137E0,-1.197569641E1,-1.921404419E0
4.307158333E-1,-3.604354706E0,-1.188483536E1,-1.699715424E0
4.407318333E-1,-3.066972198E0,-1.135538635E1,-1.601669312E0
4.507488333E-1,-2.243983612E0,-1.058718384E1,-1.568737793E0
4.607658333E-1,-1.504671021E0,-9.688752136E0,-1.381626892E0
4.707818333E-1,-8.533753967E-1,-8.885522461E0,-1.249601440E0
4.807988333E-1,-5.180726624E-1,-8.260871429E0,-1.250649261E0
4.908158333E-1,-6.255491638E-1,-8.055648193E0,-1.145717468E0
5.008318333E-1,-7.438032532E-1,-7.799979858E0,-1.584155731E0
5.108488333E-1,-9.789642334E-1,-7.664062500E0,-1.969005432E0
5.208658333E-1,-1.471889191E0,-7.748337250E0,-1.906435547E0
5.308818333E-1,-2.082020416E0,-8.168812866E0,-1.645827484E0
5.408988333E-1,-2.489473114E0,-8.756191406E0,-1.418300629E0
5.509158333E-1,-2.891237640E0,-9.216633911E0,-1.191971283E0
5.609318333E-1,-3.259322205E0,-9.419911194E0,-8.797206116E-1
5.709488333E-1,-3.229683838E0,-9.361233215E0,-6.300398254E-1
5.809658333E-1,-2.709964600E0,-9.137897644E0,-5.051994324E-1
5.909818333E-1,-2.264191589E0,-8.965306549E0,-5.053491211E-1
6.009988333E-1,-2.212548981E0,-8.977880402E0,-4.221221924E-1
6.110158333E-1,-1.901346130E0,-9.115743713E0,-5.134323120E-1
6.210318333E-1,-1.474733276E0,-9.183103638E0,-7.312294006E-1
6.310488333E-1,-1.338666229E0,-9.229806519E0,-1.023421783E0
6.410648333E-1,-1.587897949E0,-9.267378387E0,-1.154249725E0
6.510818333E-1,-1.619781647E0,-9.314230957E0,-1.111738129E0
6.610988333E-1,-1.594633942E0,-9.365274811E0,-9.973759460E-1
6.711148333E-1,-1.479523315E0,-9.404642944E0,-8.297245789E-1
6.811318333E-1,-1.385219421E0,-9.546847229E0,-6.619235229E-1
6.911488333E-1,-1.165925446E0,-9.780062256E0,-6.228547668E-1
7.011648333E-1,-9.187893677E-1,-9.897268524E0,-7.212002563E-1
7.111818333E-1,-8.705895996E-1,-1.000609222E1,-8.149053955E-1
7.211988333E-1,-7.887098694E-1,-1.007599686E1,-8.424481201E-1
7.312148333E-1,-5.786965942E-1,-9.986932068E0,-8.309220886E-1
7.412318333E-1,-5.459147644E-1,-9.771829376E0,-7.435038757E-1
7.512488333E-1,-5.387297058E-1,-9.477541351E0,-4.923262024E-1
7.612648333E-1,-5.493576050E-1,-9.152118073E0,-3.170407104E-1
7.712818333E-1,-4.803511047E-1,-8.981173553E0,-2.606080627E-1
7.812978333E-1,-4.773573303E-1,-8.952732697E0,-3.351530457E-1
7.913148333E-1,-5.840853882E-1,-9.019044800E0,-5.343887329E-1
8.013318333E-1,-7.453001404E-1,-9.274114380E0,-7.009922791E-1
8.113478333E-1,-8.937913513E-1,-9.605076141E0,-7.533833313E-1
8.213648333E-1,-8.496331787E-1,-9.767039337E0,-7.604187012E-1
8.313818333E-1,-7.232958984E-1,-9.654323730E0,-6.450086975E-1
8.413978333E-1,-5.254074097E-1,-9.298813019E0,-4.210743713E-1
8.514148333E-1,-2.730322266E-1,-8.803043976E0,-1.927990723E-1
8.614318333E-1,-1.233435059E-1,-8.425678711E0,-4.805007935E-2
8.714478333E-1,-9.220825195E-2,-8.341254272E0,1.287322998E-2
8.814648333E-1,-9.879455566E-2,-8.513995056E0,-8.831634521E-3
8.914818333E-1,-6.212081909E-2,-8.790769501E0,-1.213975525E-1
9.014978333E-1,-7.484436035E-2,-9.205856323E0,-3.623963928E-1
9.115148333E-1,-1.811233521E-1,-9.580377502E0,-6.319857788E-1
9.215318333E-1,-4.821473694E-1,-9.915530548E0,-8.681945801E-1
9.315478333E-1,-8.428971863E-1,-1.024289978E1,-9.858499146E-1
9.415648333E-1,-1.095571747E0,-1.050859726E1,-9.681866455E-1
9.515818333E-1,-1.150956573E0,-1.049811905E1,-8.261320496E-1
9.615978333E-1,-9.419911194E-1,-1.005983047E1,-5.587879944E-1
9.716148333E-1,-5.465135193E-1,-9.571396179E0,-1.922003174E-1
9.816308333E-1,-1.550775146E-1,-9.334438934E0,2.844085693E-2
9.916478333E-1,1.460961914E-1,-9.190288696E0,9.729766846E-2
1.001664833E0,3.703298950E-1,-8.966803436E0,8.681945801E-3
1.011680833E0,4.592449951E-1,-8.627159729E0,-1.787283325E-1
1.021697833E0,4.161346436E-1,-8.214467926E0,-3.932322693E-1
1.031714833E0,3.553610229E-1,-7.842042389E0,-7.240443420E-1
1.041730833E0,3.020718384E-1,-8.015381927E0,-1.228195953E0
1.051747833E0,-2.263293457E-1,-8.606951752E0,-1.758094025E0
1.061764833E0,-1.358275452E0,-9.089248810E0,-2.071691895E0
1.071780833E0,-2.513572998E0,-9.078770599E0,-2.140249329E0
1.081797833E0,-3.166215820E0,-8.663683777E0,-2.050735474E0
1.091814833E0,-3.385659485E0,-7.854765930E0,-2.017504578E0
1.101830833E0,-3.529809723E0,-6.935826874E0,-2.046843567E0
1.111847833E0,-3.663481750E0,-6.602919159E0,-2.047442322E0
1.121864833E0,-3.858376465E0,-7.676486664E0,-2.232158203E0
1.131880833E0,-4.060306549E0,-1.006671616E1,-2.695444794E0
1.141897833E0,-4.108506317E0,-1.314940567E1,-3.179388428E0
1.151913833E0,-3.934568024E0,-1.568737793E1,-3.714675293E0
1.161930833E0,-2.870281219E0,-1.703517517E1,-3.933220825E0
1.171947833E0,-9.842033386E-1,-1.687680450E1,-3.914659424E0
1.181963833E0,1.189127197E0,-1.513068558E1,-3.579057312E0
1.191980833E0,2.754871216E0,-1.313234116E1,-2.971171417E0
1.201997833E0,3.056643677E0,-1.138277939E1,-1.855242004E0
1.212013833E0,2.548001404E0,-1.041114990E1,-4.529580688E-1
1.222030833E0,1.836530914E0,-1.012404694E1,2.679428101E-1
1.232047833E0,1.198707275E0,-1.014874557E1,2.718347168E-1
1.242063833E0,6.448590088E-1,-9.685608673E0,3.914360046E-1
1.252080833E0,1.378633118E-1,-9.235045624E0,5.023553467E-1
1.262097833E0,-5.144801331E-1,-9.266779633E0,3.556604004E-1
1.272113833E0,-1.168919220E0,-9.718839569E0,-1.094224548E-1
1.282130833E0,-1.568288727E0,-1.012240036E1,-5.053491211E-1
1.292147833E0,-1.581161957E0,-1.018032990E1,-9.205856323E-1
1.302163833E0,-1.276844788E0,-1.029304550E1,-1.276395721E0
1.312180833E0,-1.193168793E0,-1.021281235E1,-1.513502655E0
1.322197833E0,-1.057850189E0,-9.963880005E0,-1.586999817E0
1.332213833E0,-9.921368408E-1,-9.952952728E0,-1.466949463E0
1.342230833E0,-8.195457458E-1,-1.005623795E1,-1.051413574E0
1.352246833E0,-4.454736328E-1,-1.001163071E1,-5.319937134E-1
1.362263833E0,-2.640509033E-1,-1.008692413E1,-1.445993042E-1
1.372280833E0,-2.393522644E-1,-9.947713623E0,2.454895020E-1
1.382296833E0,-3.471281433E-1,-9.648186493E0,6.372248840E-1
1.392313833E0,-3.511697388E-1,-9.403295746E0,8.190966797E-1
1.402330833E0,-1.901046753E-1,-9.208850098E0,8.054750061E-1
1.412346833E0,-2.020797729E-2,-9.125473480E0,7.905061340E-1
1.422363833E0,1.404080200E-1,-9.203461304E0,7.967930603E-1
1.432380208E0,3.501219177E-1,-9.423354034E0,7.749385071E-1
1.442396208E0,6.646179199E-1,-9.818382568E0,7.116201782E-1
1.452413208E0,1.125210114E0,-1.018347336E1,7.005432129E-1
1.462430208E0,1.633253632E0,-1.050395691E1,7.364685059E-1
1.472446208E0,2.080373840E0,-1.076875626E1,8.466394043E-1
1.482463208E0,2.463277588E0,-1.091125992E1,9.282197571E-1
1.492480208E0,2.724185028E0,-1.097173416E1,9.542655945E-1
1.502496208E0,2.796784058E0,-1.092128906E1,8.675958252E-1
1.512513208E0,2.595901794E0,-1.084375031E1,6.979985046E-1
1.522529208E0,2.102677460E0,-1.071277267E1,6.096821594E-1
1.532546208E0,1.587598572E0,-1.048464706E1,6.614744568E-1
1.542563208E0,1.146016846E0,-1.043794418E1,5.110372925E-1
1.552579208E0,7.084767151E-1,-1.079225739E1,3.532653809E-1
1.562596208E0,1.335223389E-1,-1.126901596E1,4.547543335E-1
1.572613208E0,-2.230361938E-1,-1.181178726E1,9.370513916E-2
1.582629208E0,-6.225553894E-1,-1.214738937E1,-3.263214111E-1
1.592646208E0,-1.274449768E0,-1.180265625E1,-7.123686218E-1
1.602663208E0,-2.391277313E0,-1.095721436E1,-1.191671906E0
1.612679208E0,-3.365900574E0,-1.110480743E1,-1.665137329E0
1.622696208E0,-3.593277740E0,-1.173619446E1,-2.295326843E0
1.632713208E0,-3.346740417E0,-1.169368286E1,-2.628384247E0
1.642729208E0,-3.102598114E0,-1.114073273E1,-2.496957550E0
1.652746208E0,-2.726580048E0,-1.011506561E1,-2.127675476E0
1.662763208E0,-2.187700653E0,-8.953780518E0,-1.736688538E0
1.672779208E0,-1.513352966E0,-7.730823669E0,-1.380279694E0
1.682796208E0,-1.217867432E0,-6.434968414E0,-1.206790466E0
1.692812208E0,-1.306483154E0,-5.420827332E0,-1.036145325E0
1.702829208E0,-1.458866272E0,-5.424270172E0,-1.030307465E0
1.712846208E0,-1.594933319E0,-5.918392639E0,-1.198258209E0
1.722862208E0,-1.915267181E0,-6.629863129E0,-1.372795258E0
1.732879208E0,-2.600242767E0,-7.258705444E0,-1.453627167E0
1.742896208E0,-3.348087616E0,-8.215815125E0,-1.470841370E0
1.752912208E0,-3.867507477E0,-9.030271454E0,-1.427281952E0
1.762929208E0,-4.456831970E0,-9.465715942E0,-1.340911560E0
1.772946208E0,-4.805007935E0,-9.625583496E0,-1.141675873E0
1.782962208E0,-4.540208588E0,-9.608818359E0,-8.610095215E-1
1.792979208E0,-3.530258789E0,-9.536069641E0,-6.953041077E-1
1.802996208E0,-2.511477356E0,-9.167236633E0,-5.408253479E-1
1.813012208E0,-1.941013641E0,-8.840017090E0,-2.131567383E-1
1.823029208E0,-1.462758179E0,-8.631351013E0,-1.731898499E-1
1.833046208E0,-1.108594666E0,-8.754844208E0,-4.284091187E-1
1.843062208E0,-8.952882385E-1,-9.155860291E0,-7.264393616E-1
1.853079208E0,-9.190887451E-1,-9.571545868E0,-9.949809265E-1
1.863096208E0,-9.252259827E-1,-9.953102417E0,-1.118773499E0
1.873112208E0,-1.058448944E0,-1.020308258E1,-1.205742645E0
1.883129208E0,-1.147513733E0,-1.021371048E1,-1.028960266E0
1.893145208E0,-1.055155792E0,-1.002151016E1,-8.072712708E-1
1.903162208E0,-8.270301819E-1,-9.869276733E0,-6.842271423E-1
1.913179208E0,-7.111711121E-1,-9.867480469E0,-6.424639893E-1
1.923195208E0,-7.051835632E-1,-9.878707123E0,-6.051914978E-1
1.933212208E0,-7.005432129E-1,-9.839788055E0,-5.156776428E-1
1.943229208E0,-6.894662476E-1,-9.670639801E0,-4.123924255E-1
1.953245208E0,-6.571334839E-1,-9.429640961E0,-3.808081055E-1
1.963262208E0,-5.682183838E-1,-9.288185120E0,-3.998185730E-1
1.973279208E0,-5.647755432E-1,-9.295220490E0,-4.710704041E-1
1.983295208E0,-6.158193970E-1,-9.444759521E0,-5.388793945E-1
1.993312208E0,-6.710545349E-1,-9.681118011E0,-5.249583435E-1
2.003329208E0,-7.217990112E-1,-9.844727783E0,-4.438270569E-1
2.013345208E0,-7.283853149E-1,-9.870623932E0,-4.104464722E-1
2.023362208E0,-6.643185425E-1,-9.697733459E0,-3.915856934E-1
2.033379208E0,-6.075865173E-1,-9.409882050E0,-3.870950317E-1
2.043395208E0,-6.459068298E-1,-9.222920837E0,-3.977229309E-1
2.053412208E0,-6.894662476E-1,-9.164242859E0,-4.044589233E-1
2.063429208E0,-7.520361328E-1,-9.154213715E0,-4.237687683E-1
2.073445208E0,-7.673043823E-1,-9.149124298E0,-4.264631653E-1
2.083462208E0,-7.533833313E-1,-9.117839355E0,-3.773652649E-1
2.093478208E0,-6.210585022E-1,-9.038055267E0,-3.236270142E-1
2.103495208E0,-2.474354553E-1,-9.027427368E0,-2.576142883E-1
2.113512208E0,8.307723999E-2,-9.056466980E0,-3.067121887E-1
2.123528208E0,2.875520325E-1,-9.142987061E0,-4.647834778E-1
2.133545208E0,3.124003601E-1,-9.247769165E0,-6.530918884E-1
2.143562208E0,2.146536255E-1,-9.332942047E0,-7.999365234E-1
2.153578208E0,1.032852173E-2,-9.370663605E0,-8.550219727E-1
2.163595208E0,-4.665797424E-1,-9.341923370E0,-8.406518555E-1
2.173612208E0,-1.011446686E0,-9.260941772E0,-7.478448486E-1
2.183628208E0,-1.136436768E0,-8.929231567E0,-8.113128662E-1
2.193645208E0,-7.625143433E-1,-8.529562683E0,-1.113684082E0
2.203662208E0,-3.812571716E-1,-8.519533539E0,-1.577270050E0
2.213678208E0,-2.363584900E-1,-8.905880127E0,-1.958227844E0
2.223695208E0,-8.452922058E-1,-9.213340759E0,-2.223625946E0
2.233712208E0,-2.106569366E0,-9.398954773E0,-2.127974854E0
2.243728208E0,-3.277284851E0,-9.192983093E0,-1.891766052E0
2.253745208E0,-3.976780243E0,-8.590935059E0,-1.776954803E0
2.263762208E0,-4.517455902E0,-7.790699158E0,-1.989063721E0
2.273778208E0,-4.883744202E0,-6.976093140E0,-2.184856567E0
2.283795208E0,-4.932093658E0,-6.637946320E0,-2.338137817E0
2.293811208E0,-4.694837036E0,-7.404801636E0,-2.706222382E0
2.303828208E0,-4.251908112E0,-9.255852356E0,-3.170556793E0
2.313845208E0,-3.711831207E0,-1.181448166E1,-3.587589569E0
2.323861208E0,-3.056344299E0,-1.439571396E1,-3.834276581E0
2.333878208E0,-1.980980530E0,-1.664778076E1,-3.953877869E0
2.343895208E0,-3.751199341E-1,-1.756387573E1,-4.039050751E0
2.353911208E0,1.184636536E0,-1.689072556E1,-3.888463898E0
2.363928208E0,2.706072693E0,-1.529264877E1,-3.055146790E0
2.373945208E0,2.610271912E0,-1.318727692E1,-1.681154022E0
2.383961208E0,1.966311035E0,-1.160506714E1,-2.288740540E-1
2.393978208E0,1.623823242E0,-1.059436890E1,7.548802185E-1
2.403995208E0,1.277892609E0,-9.977202301E0,9.904902649E-1
2.414011208E0,7.331753540E-1,-9.509125671E0,9.244775391E-1
2.424028208E0,4.138893127E-1,-9.110803986E0,7.226971436E-1
2.434045500E0,-3.445834351E-1,-8.825796661E0,3.758683777E-1
2.444061500E0,-9.315129089E-1,-8.984616394E0,9.610015869E-2
2.454078500E0,-1.364113312E0,-9.006620636E0,-4.429289246E-1
2.464095500E0,-1.783541107E0,-9.477541351E0,-1.053060150E0
2.474111500E0,-2.134411469E0,-9.889634399E0,-1.682201843E0
2.484128500E0,-2.256407776E0,-9.742490387E0,-2.043550415E0
2.494145500E0,-2.205513611E0,-9.572593689E0,-2.168989563E0
2.504161500E0,-2.101929016E0,-9.735155640E0,-2.148033142E0
2.514178500E0,-1.897454224E0,-9.984387360E0,-1.844763794E0
2.524195500E0,-1.696871338E0,-1.006881180E1,-1.331930237E0
2.534211500E0,-1.288969574E0,-9.954299927E0,-7.009922791E-1
2.544228500E0,-7.762857056E-1,-9.697434082E0,-8.846603394E-2
2.554245500E0,-2.170486450E-1,-9.307045898E0,5.269042969E-1
2.564261500E0,2.251318359E-1,-9.250463562E0,1.006956024E0
2.574278500E0,4.665797424E-1,-9.221873016E0,1.364113312E0
2.584294500E0,6.716532898E-1,-9.212442627E0,1.522633667E0
2.594311500E0,1.003213806E0,-9.306147766E0,1.469344482E0
2.604328500E0,1.317560120E0,-9.574689331E0,1.302591248E0
2.614344500E0,1.465602264E0,-9.942324829E0,1.156345367E0
2.624361500E0,1.469643860E0,-1.052925430E1,8.912466431E-1
2.634378500E0,1.462458801E0,-1.112920670E1,7.047344971E-1
2.644394500E0,1.562001801E0,-1.162048508E1,6.890171814E-1
2.654411500E0,1.729353790E0,-1.188618256E1,7.909552002E-1
2.664428500E0,1.807491302E0,-1.193857361E1,9.331594849E-1
2.674444500E0,1.725312195E0,-1.171239395E1,1.016236725E0
2.684461500E0,1.522483978E0,-1.128218857E1,9.720785522E-1
2.694478500E0,1.281335449E0,-1.084584595E1,8.963360596E-1
2.704494500E0,1.129700775E0,-1.037971527E1,8.027806091E-1
2.714511500E0,8.828640747E-1,-1.009096573E1,6.195616150E-1
2.724528500E0,3.700305176E-1,-1.014530273E1,6.379733276E-1
2.734544500E0,-3.728746033E-1,-1.039438477E1,7.613168335E-1
2.744561500E0,-1.134790192E0,-1.108804230E1,4.093986511E-1
2.754578500E0,-1.515298920E0,-1.144954056E1,-3.249742126E-1
2.764594500E0,-1.414109344E0,-1.104568039E1,-1.100212097E0
2.774611500E0,-1.517843628E0,-1.014754807E1,-1.534608765E0
2.784628500E0,-2.311193848E0,-9.724378052E0,-1.748963013E0
2.794644500E0,-2.998115387E0,-9.753417664E0,-1.970801697E0
2.804661500E0,-2.530487823E0,-9.741442566E0,-2.330952759E0
2.814678500E0,-1.685045929E0,-9.398206329E0,-2.471510468E0
2.824694500E0,-1.339264984E0,-9.081764374E0,-2.239642639E0
2.834711500E0,-1.180145874E0,-8.925639038E0,-2.095492401E0
2.844728500E0,-9.237290955E-1,-8.653804321E0,-2.028731232E0
2.854744500E0,-5.777984619E-1,-7.942932587E0,-1.789229279E0
2.864761500E0,-4.035607910E-1,-7.141798553E0,-1.304686890E0
2.874778500E0,-5.713618469E-1,-6.582860870E0,-9.466314697E-1
2.884794500E0,-1.010398865E0,-6.740483093E0,-7.376660156E-1
2.894811500E0,-1.517693939E0,-7.620054016E0,-7.607180786E-1
2.904827500E0,-1.988464966E0,-8.551716614E0,-7.599696350E-1
2.914844500E0,-2.043101349E0,-9.375004578E0,-9.354048157E-1
2.924861500E0,-2.090402985E0,-9.686057739E0,-1.240021362E0
2.934877500E0,-2.133812714E0,-1.012269974E1,-1.479673004E0
2.944894500E0,-2.435585175E0,-1.028765671E1,-1.700613556E0
2.954911500E0,-2.313738556E0,-1.013078293E1,-1.780247955E0
2.964927500E0,-2.490970001E0,-9.803563385E0,-1.416654053E0
2.974944500E0,-2.468067627E0,-9.535470886E0,-9.470805359E-1
2.984961500E0,-2.280956726E0,-9.207203522E0,-6.788383484E-1
2.994977500E0,-2.480342102E0,-8.910370789E0,-7.577243042E-1
3.004994500E0,-2.976410522E0,-8.824449463E0,-8.442443848E-1
3.015011500E0,-3.023562469E0,-9.022337952E0,-1.084045715E0
3.025027500E0,-2.797233124E0,-9.279054108E0,-1.425186310E0
3.035044500E0,-2.689457245E0,-9.327403564E0,-1.517843628E0
3.045061500E0,-2.460433502E0,-9.526040497E0,-1.414558411E0
3.055077500E0,-2.089654541E0,-9.635462952E0,-1.355431366E0
3.065094500E0,-1.623374176E0,-9.544751587E0,-1.087488556E0
3.075111500E0,-1.024768982E0,-9.377249908E0,-7.876620483E-1
3.085127500E0,-5.200186157E-1,-9.233249359E0,-6.015989685E-1
3.095144500E0,-2.683918762E-1,-9.273216248E0,-5.462141418E-1
3.105161500E0,-2.293231201E-1,-9.477691040E0,-6.502478027E-1
3.115177500E0,-3.056643677E-1,-9.630523224E0,-7.369175720E-1
3.125194500E0,-4.040098572E-1,-9.601782990E0,-6.738986206E-1
3.135211500E0,-5.242098999E-1,-9.476044464E0,-6.062393188E-1
3.145227500E0,-5.686674500E-1,-9.350755005E0,-5.493576050E-1
3.155244500E0,-4.816983032E-1,-9.247170410E0,-4.583468628E-1
3.165261500E0,-4.058061218E-1,-9.026229858E0,-4.053570557E-1
3.175277500E0,-3.939807129E-1,-8.691376190E0,-3.373983765E-1
3.185294500E0,-4.857398987E-1,-8.289312286E0,-1.556762695E-1
3.195311500E0,-5.322930908E-1,-7.933352509E0,1.892065430E-1
3.205327500E0,-3.385958862E-1,-7.670050049E0,4.706213379E-1
3.215344500E0,-1.375639343E-1,-7.664661255E0,5.917195129E-1
3.225361500E0,-2.228865051E-1,-7.920778656E0,5.132826233E-1
3.235377500E0,-5.448669434E-1,-8.622669067E0,2.950364685E-1
3.245394500E0,-9.479786682E-1,-9.519903259E0,9.280700684E-3
3.255411500E0,-1.221310272E0,-1.028526169E1,-2.430944824E-1
3.265427500E0,-1.088087311E0,-1.088850723E1,-3.718267822E-1
3.275444500E0,-6.613247681E-1,-1.115046249E1,-4.270619202E-1
3.285460500E0,-1.212478638E-2,-1.077564194E1,-4.234693909E-1
3.295477500E0,4.724176025E-1,-9.775571594E0,-4.047583008E-1
3.305494500E0,6.042933655E-1,-8.665929108E0,-2.989283752E-1
3.315510500E0,6.604266357E-1,-7.805518341E0,-6.616241455E-2
3.325527500E0,6.164181519E-1,-7.204218750E0,1.957928467E-1
