"Time (s)","X (rad/s)","Y (rad/s)","Z (rad/s)"
8.682999993E-3,-1.697060168E-1,-8.478819728E-1,3.071646094E-1
1.861700008E-2,-3.533717096E-1,-1.032820821E0,5.671348423E-2
2.855100005E-2,-5.736404657E-1,-1.174342632E0,-2.527454495E-1
3.848500003E-2,-8.024605513E-1,-1.192666769E0,-5.478271842E-1
4.841900000E-2,-9.849193096E-1,-1.062743068E0,-7.846212387E-1
5.835300009E-2,-1.062303901E0,-7.687308788E-1,-9.975734949E-1
6.828600005E-2,-9.369450212E-1,-2.904544175E-1,-1.186772227E0
7.822000002E-2,-6.446574926E-1,2.495992333E-1,-1.276797175E0
8.815400000E-2,-2.950791419E-1,6.274844408E-1,-1.222664356E0
9.808800009E-2,-2.867171355E-2,7.721430659E-1,-9.860233665E-1
1.080220001E-1,7.496050000E-2,6.819168925E-1,-5.920251012E-1
1.179560000E-1,6.833295524E-2,3.950689137E-1,-1.495523751E-1
1.278890000E-1,4.503029585E-2,5.013947934E-2,2.523950636E-1
1.378230001E-1,8.059840649E-2,-1.928313524E-1,5.903206468E-1
1.477570001E-1,2.556950450E-1,-1.879503876E-1,8.741574287E-1
1.576910000E-1,5.844659805E-1,1.679635197E-1,1.118093491E0
1.676250000E-1,1.003358960E0,6.379727721E-1,1.286080480E0
1.775590001E-1,1.335658073E0,8.340343833E-1,1.398406744E0
1.874920001E-1,1.424602866E0,6.887885332E-1,1.505712986E0
1.974260000E-1,1.226342201E0,4.190886319E-1,1.628720403E0
2.073600000E-1,7.926205993E-1,1.718752384E-1,1.714567661E0
2.172940001E-1,2.230495512E-1,-5.579976365E-3,1.748718739E0
2.272280001E-1,-4.086658955E-1,-7.749915123E-2,1.734113932E0
2.371620000E-1,-1.020538330E0,1.340624969E-2,1.604864001E0
2.470950000E-1,-1.464399219E0,4.047947228E-1,1.369069338E0
2.570290001E-1,-1.636882067E0,1.086023569E0,1.101283431E0
2.669630001E-1,-1.519883394E0,1.865280151E0,8.877125978E-1
2.768970000E-1,-1.126144648E0,2.469034433E0,7.950068712E-1
2.868310000E-1,-6.371148229E-1,2.642596245E0,7.766423821E-1
2.967650000E-1,-1.405093521E-1,1.870004177E0,7.790882587E-1
3.066977500E-1,2.442247868E-1,5.445725918E-1,7.380623817E-1
3.166317501E-1,4.261197448E-1,-4.194664061E-1,6.777386069E-1
3.265657501E-1,4.171084464E-1,-9.124268293E-1,5.932745337E-1
3.364997500E-1,2.572570145E-1,-1.015405655E0,4.455700219E-1
3.464337500E-1,-7.692407817E-4,-6.487814188E-1,2.371579856E-1
3.563677500E-1,-2.718947232E-1,1.236053035E-1,-2.075424418E-2
3.663007501E-1,-4.767110646E-1,1.070142746E0,-3.033593595E-1
3.762347500E-1,-5.448400378E-1,1.820404768E0,-5.287304521E-1
3.861687500E-1,-4.757542610E-1,2.097677469E0,-6.152656078E-1
3.961027501E-1,-3.438854516E-1,1.927657843E0,-5.707582831E-1
4.060367501E-1,-2.257243395E-1,1.460877061E0,-4.205451012E-1
4.159707500E-1,-1.748174876E-1,9.360968471E-1,-2.034652680E-1
4.259037500E-1,-2.026680708E-1,6.167377830E-1,3.030972183E-2
4.358377501E-1,-3.208066821E-1,6.570271254E-1,2.018567026E-1
4.457717501E-1,-5.023115873E-1,9.879853129E-1,2.849177420E-1
4.557057500E-1,-7.054657340E-1,1.407655835E0,3.036701381E-1
4.656397500E-1,-8.896327615E-1,1.676207542E0,2.903048098E-1
4.755727501E-1,-9.907274246E-1,1.672980070E0,2.874214053E-1
4.855067501E-1,-9.502515793E-1,1.429271102E0,3.569028378E-1
4.954407500E-1,-7.741047740E-1,1.056183577E0,5.049666166E-1
5.053747500E-1,-5.030089021E-1,6.982604861E-1,6.796466708E-1
5.153087500E-1,-2.368946671E-1,4.778705835E-1,8.242784142E-1
5.252427501E-1,-7.035765797E-2,4.727417529E-1,8.927517533E-1
5.351757500E-1,-2.286337689E-2,6.736056209E-1,8.967449069E-1
5.451097500E-1,-6.944193691E-2,1.000774980E0,8.644219041E-1
5.550437500E-1,-1.760719866E-1,1.373064041E0,7.853012681E-1
5.649777501E-1,-2.815499604E-1,1.682408810E0,6.690473557E-1
5.749117500E-1,-3.302109838E-1,1.805218101E0,5.426907539E-1
5.848457500E-1,-3.282283843E-1,1.663831592E0,4.028387964E-1
5.947787501E-1,-3.372248113E-1,1.306531310E0,2.401649356E-1
6.047127501E-1,-3.834700584E-1,9.162325263E-1,2.729713172E-2
6.146467500E-1,-4.008405209E-1,6.601631641E-1,-1.798318177E-1
6.245807500E-1,-3.094299138E-1,5.366129875E-1,-3.087189794E-1
6.345147500E-1,-1.395581514E-1,4.310195148E-1,-3.846001029E-1
6.444487501E-1,3.658269346E-2,3.133081496E-1,-4.131343365E-1
6.543817500E-1,1.463057250E-1,2.392688394E-1,-4.233544767E-1
6.643157500E-1,1.412953585E-1,3.217835724E-1,-4.498339593E-1
6.742497500E-1,6.564825773E-2,5.882197618E-1,-5.495488048E-1
6.841837501E-1,-3.795891628E-2,6.163826585E-1,-7.344840765E-1
6.941177500E-1,-9.800867736E-2,3.683771193E-1,-1.019716382E0
7.040517500E-1,-5.523221940E-2,-4.411339387E-2,-1.386539102E0
7.139847500E-1,1.009256914E-1,-5.860296488E-1,-1.749665856E0
7.239187501E-1,3.039627671E-1,-1.164071560E0,-2.067010880E0
7.338527500E-1,4.356637895E-1,-1.572855353E0,-2.321469307E0
7.437867500E-1,4.649079740E-1,-1.702603340E0,-2.483745337E0
7.537207500E-1,4.215522408E-1,-1.572581172E0,-2.516595125E0
7.636547501E-1,3.297501504E-1,-1.303569436E0,-2.435356140E0
7.735887500E-1,2.282232791E-1,-1.057425618E0,-2.308881283E0
7.835217500E-1,1.801538020E-1,-9.513673782E-1,-2.182107449E0
7.934557500E-1,2.142153531E-1,-8.866256475E-1,-2.002517939E0
8.033897501E-1,3.150927126E-1,-6.869178414E-1,-1.622738838E0
8.133237500E-1,3.768844306E-1,-2.695104778E-1,-9.707232118E-1
8.232577500E-1,4.993191361E-1,2.621371858E-2,-1.941302419E-1
8.331917500E-1,9.122313261E-1,-3.317803741E-1,4.255074263E-1
8.431247501E-1,1.419187665E0,-9.719892144E-1,5.868715048E-1
8.530587500E-1,1.822152376E0,-1.524097443E0,5.139637589E-1
8.629927500E-1,2.003952503E0,-1.963851094E0,4.047476053E-1
8.729267500E-1,1.985551715E0,-2.274894476E0,3.477588892E-1
8.828607501E-1,1.852369189E0,-2.406284809E0,3.578168154E-1
8.927947500E-1,1.635408640E0,-2.328246117E0,4.002383053E-1
9.027277500E-1,1.337819219E0,-2.030441761E0,4.139185846E-1
9.126617500E-1,9.399027824E-1,-1.548068523E0,3.721474111E-1
9.225957501E-1,4.399340153E-1,-1.058304071E0,2.312168181E-1
9.325297500E-1,-1.154235080E-1,-7.070789933E-1,-4.743052274E-2
9.424637500E-1,-6.390420198E-1,-5.689054728E-1,-4.412568808E-1
9.523977500E-1,-1.035516620E0,-6.330554485E-1,-9.216235280E-1
9.623307501E-1,-1.259087801E0,-8.399813771E-1,-1.410004139E0
9.722647500E-1,-1.327863932E0,-1.115395904E0,-1.764454365E0
9.821987500E-1,-1.265541315E0,-1.300614238E0,-1.886701822E0
9.921327500E-1,-1.094323516E0,-1.239128232E0,-1.739007354E0
1.002066750E0,-8.232972622E-1,-9.074158669E-1,-1.294288993E0
1.012000750E0,-4.020768404E-1,-4.219836891E-1,-5.999594927E-1
1.021933750E0,2.567130327E-1,-8.275722712E-2,2.107188255E-1
1.031867750E0,1.029174685E0,-2.171411365E-2,1.021102428E0
1.041801750E0,1.731588602E0,-1.774635166E-1,1.717980862E0
1.051735750E0,2.239456892E0,-4.586381912E-1,2.148498535E0
1.061669750E0,2.507798195E0,-7.479413152E-1,2.288324833E0
1.071603750E0,2.524040461E0,-9.742090702E-1,2.200735807E0
1.081536750E0,2.282044172E0,-1.081152201E0,1.963452458E0
1.091470750E0,1.826876640E0,-1.050466180E0,1.650955200E0
1.101404750E0,1.236705422E0,-8.710086346E-1,1.311109185E0
1.111338750E0,6.365828514E-1,-5.401076674E-1,9.949562550E-1
1.121272750E0,1.632465720E-1,-3.381179571E-1,7.811378241E-1
1.131206750E0,-1.741245389E-1,-4.502000213E-1,6.642274261E-1
1.141140750E0,-4.642882943E-1,-6.603137851E-1,5.014290810E-1
1.151073750E0,-7.512676120E-1,-8.690760732E-1,1.504856944E-1
1.161007750E0,-1.031271577E0,-1.004974723E0,-4.324412644E-1
1.170941750E0,-1.310395122E0,-9.559686184E-1,-1.181725144E0
1.180875750E0,-1.564554691E0,-5.457174182E-1,-1.940982699E0
1.190809750E0,-1.739230990E0,3.014061749E-1,-2.497150660E0
1.200743750E0,-1.799894452E0,1.295940757E0,-2.702749014E0
1.210676750E0,-1.720190048E0,2.043565512E0,-2.516149521E0
1.220610750E0,-1.512951016E0,2.281599522E0,-1.976739168E0
1.230544750E0,-1.192065120E0,1.939971924E0,-1.171502829E0
1.240478750E0,-7.249242067E-1,1.185395718E0,-3.368102014E-1
1.250412750E0,-3.412954137E-2,5.400448442E-1,1.976819634E-1
1.260346750E0,7.394941449E-1,4.006148875E-1,3.981018960E-1
1.270280750E0,1.369956970E0,7.253921628E-1,4.684074819E-1
1.280213750E0,1.773247004E0,1.284919143E0,4.800277352E-1
1.290147750E0,1.985361338E0,1.629090905E0,4.452143610E-1
1.300081750E0,2.024709702E0,1.655522704E0,4.684250653E-1
1.310020375E0,1.922909856E0,1.497787118E0,6.185903549E-1
1.319954375E0,1.657047629E0,1.261091232E0,8.805537820E-1
1.329888375E0,1.199651241E0,9.992735386E-1,1.185686707E0
1.339821375E0,5.400372148E-1,7.200549245E-1,1.463891268E0
1.349755375E0,-2.253288925E-1,4.080139101E-1,1.653581738E0
1.359689375E0,-1.003314495E0,1.035305336E-1,1.761682749E0
1.369623375E0,-1.674778581E0,-5.803839117E-2,1.835643768E0
1.379557375E0,-2.042905331E0,1.235897765E-1,1.916062951E0
1.389491375E0,-2.104467392E0,5.023823380E-1,1.972788215E0
1.399424375E0,-1.881281972E0,9.769221544E-1,1.944010735E0
1.409358375E0,-1.454685688E0,1.427174330E0,1.765583634E0
1.419292375E0,-8.842675090E-1,1.460711360E0,1.451406240E0
1.429226375E0,-2.714022398E-1,1.117634416E0,1.092207432E0
1.439160375E0,1.902471781E-1,6.861058474E-1,7.871230841E-1
1.449094375E0,4.320781827E-1,2.180845439E-1,5.438351035E-1
1.459028375E0,4.675931334E-1,-1.669307351E-1,3.179456294E-1
1.468961375E0,3.429617286E-1,-3.015548587E-1,9.009514749E-2
1.478895375E0,1.038704962E-1,-1.429808885E-1,-1.301530153E-1
1.488829375E0,-1.786975414E-1,2.500833273E-1,-3.083480597E-1
1.498763375E0,-4.281335771E-1,7.631617785E-1,-4.161911309E-1
1.508697375E0,-5.629483461E-1,1.214921713E0,-4.186311066E-1
1.518631375E0,-5.470515490E-1,1.458541989E0,-3.417566419E-1
1.528564375E0,-4.088117182E-1,1.475985765E0,-2.274883837E-1
1.538498375E0,-2.580217421E-1,1.325459599E0,-1.038769037E-1
1.548432375E0,-1.781061441E-1,1.114780188E0,-1.040447969E-2
1.558366375E0,-2.173293978E-1,9.711838365E-1,3.839175403E-2
1.568300375E0,-3.524824083E-1,9.587652683E-1,6.763511896E-2
1.578234375E0,-5.241400003E-1,1.029440761E0,9.584847838E-2
1.588167375E0,-6.785434484E-1,1.103352189E0,1.500845551E-1
1.598101375E0,-7.556887865E-1,1.084611177E0,2.357903421E-1
1.608035375E0,-7.377814054E-1,9.591986537E-1,3.733108938E-1
1.617969375E0,-6.107701063E-1,7.818099856E-1,5.518775582E-1
1.627903375E0,-4.265129268E-1,6.028064489E-1,7.526471615E-1
1.637837375E0,-2.232048959E-1,4.837154150E-1,9.340586066E-1
1.647771375E0,-7.755128294E-2,4.839518964E-1,1.101343393E0
1.657704375E0,-6.911291182E-2,6.630558968E-1,1.250967145E0
1.667638375E0,-2.257171720E-1,1.003858447E0,1.362088919E0
1.677572375E0,-4.828026891E-1,1.444338322E0,1.349541664E0
1.687506375E0,-7.082358003E-1,1.865366220E0,1.157302737E0
1.697440375E0,-7.842377424E-1,2.136557579E0,8.405710459E-1
1.707374375E0,-6.986501813E-1,2.150634766E0,4.931731224E-1
1.717307375E0,-5.632560253E-1,1.888972282E0,1.438154131E-1
1.727241375E0,-4.868533611E-1,1.488572598E0,-2.385247797E-1
1.737175375E0,-4.430240095E-1,1.107031822E0,-6.140334010E-1
1.747109375E0,-3.429203033E-1,7.757077217E-1,-9.186977148E-1
1.757043375E0,-1.692790985E-1,4.853692651E-1,-1.175538778E0
1.766977375E0,-8.322976530E-3,1.793976277E-1,-1.411816359E0
1.776911375E0,6.229974329E-2,-2.738786675E-2,-1.599732399E0
1.786844375E0,4.267010838E-2,4.814790562E-2,-1.703937650E0
1.796778375E0,-5.895309150E-3,3.089794219E-1,-1.761840343E0
1.806712375E0,-5.691215023E-2,4.102309346E-1,-1.813627839E0
1.816646375E0,-5.885191262E-2,2.607316077E-1,-1.882804036E0
1.826580375E0,4.781407863E-2,-8.419436216E-2,-1.959972858E0
1.836514375E0,2.518400550E-1,-5.757592916E-1,-2.025758982E0
1.846447375E0,4.370437264E-1,-1.110162258E0,-2.069413900E0
1.856381375E0,5.312568545E-1,-1.469687700E0,-2.078483582E0
1.866315375E0,5.317234397E-1,-1.545416474E0,-2.052072525E0
1.876249375E0,4.526468515E-1,-1.387760639E0,-1.979708314E0
1.886183375E0,3.081232309E-1,-1.181323051E0,-1.885107160E0
1.896117375E0,1.810429692E-1,-1.097188711E0,-1.803685546E0
1.906051375E0,1.160764918E-1,-1.070355058E0,-1.688688636E0
1.915984375E0,1.475688964E-1,-9.189178348E-1,-1.380608082E0
1.925918375E0,2.303809673E-1,-5.677070618E-1,-7.759447694E-1
1.935852375E0,3.850838244E-1,-2.624671161E-1,1.866582222E-2
1.945786375E0,8.030136824E-1,-5.277712345E-1,6.842276454E-1
1.955720375E0,1.342839718E0,-1.297660351E0,8.701660037E-1
1.965654375E0,1.743738651E0,-2.060035467E0,6.965843439E-1
1.975588375E0,1.926106215E0,-2.577257156E0,4.790928066E-1
1.985521375E0,1.903219223E0,-2.831682444E0,3.655790389E-1
1.995455375E0,1.742627025E0,-2.825060129E0,3.519173265E-1
2.005389375E0,1.503377676E0,-2.565805674E0,3.944234848E-1
2.015323375E0,1.194709063E0,-2.102961063E0,4.195217788E-1
2.025257375E0,8.160644770E-1,-1.521501780E0,3.902855814E-1
2.035191375E0,3.871643543E-1,-9.526478052E-1,2.740077376E-1
2.045124375E0,-6.400576979E-2,-5.350082517E-1,2.140479162E-2
2.055058375E0,-4.774739444E-1,-3.920867443E-1,-3.556287587E-1
2.064992375E0,-8.152439594E-1,-5.344351530E-1,-8.344440460E-1
2.074926375E0,-1.013252497E0,-8.905143142E-1,-1.348863959E0
2.084860375E0,-1.056097388E0,-1.328786969E0,-1.780061483E0
2.094794375E0,-9.732323289E-1,-1.621861458E0,-1.989774823E0
2.104728375E0,-7.724654078E-1,-1.639209270E0,-1.883187294E0
2.114661375E0,-4.115337729E-1,-1.358135700E0,-1.463720441E0
2.124595375E0,1.276373118E-1,-8.512004614E-1,-8.276956081E-1
2.134529375E0,7.839631438E-1,-2.083095461E-1,-6.563757360E-2
2.144463375E0,1.437096477E0,4.050007164E-1,7.294041514E-1
2.154397375E0,1.964355707E0,7.836621404E-1,1.394619942E0
2.164331375E0,2.270181656E0,8.166784048E-1,1.771576881E0
2.174264375E0,2.327958822E0,5.392050147E-1,1.890911698E0
2.184198375E0,2.139819145E0,4.096407443E-2,1.818256974E0
2.194132375E0,1.756886482E0,-5.304186940E-1,1.619909525E0
2.204066375E0,1.238964796E0,-1.000760436E0,1.380222678E0
2.214000375E0,6.823239326E-1,-1.232042670E0,1.214214444E0
2.223934375E0,1.721514761E-1,-1.247441411E0,1.122735023E0
2.233868375E0,-2.103162557E-1,-1.338757634E0,1.053451777E0
2.243801375E0,-4.820604324E-1,-1.555369496E0,9.564572573E-1
2.253735375E0,-7.238707542E-1,-1.738012671E0,7.732309103E-1
2.263669375E0,-9.494141340E-1,-1.840533495E0,4.382830560E-1
2.273603375E0,-1.182404280E0,-1.853213191E0,-4.583846778E-2
2.283537375E0,-1.412773848E0,-1.674084663E0,-6.231430769E-1
2.293471375E0,-1.583933830E0,-1.233859301E0,-1.159330487E0
2.303400417E0,-1.595291615E0,-5.572078824E-1,-1.549548030E0
2.313333417E0,-1.400232673E0,1.695672572E-1,-1.674683094E0
2.323267417E0,-1.016472697E0,7.348681688E-1,-1.502616882E0
2.333201417E0,-5.493093729E-1,9.309131503E-1,-1.069596529E0
2.343135417E0,-8.613716811E-2,7.387706041E-1,-5.544638038E-1
2.353069417E0,4.198165238E-1,5.315843225E-1,-1.714430898E-1
2.363003417E0,1.057857394E0,8.055047989E-1,2.240387350E-2
2.372937417E0,1.750747919E0,1.552458405E0,1.012246832E-1
2.382870417E0,2.390865803E0,2.209805489E0,8.414743096E-2
2.392804417E0,2.823210239E0,2.341334343E0,9.711433202E-2
2.402738417E0,2.959382057E0,2.072261572E0,2.500125170E-1
2.412672417E0,2.791563511E0,1.525526166E0,4.913828969E-1
2.422606417E0,2.296201706E0,8.448436856E-1,8.354644179E-1
2.432540417E0,1.491866708E0,2.092545927E-1,1.273651719E0
2.442474417E0,4.704730511E-1,-2.406268120E-1,1.672530413E0
2.452407417E0,-6.622000337E-1,-4.039348960E-1,1.877990603E0
2.462341417E0,-1.796360135E0,-3.809861839E-1,1.934419870E0
2.472275417E0,-2.740630865E0,-2.288979292E-1,1.945601106E0
2.482209417E0,-3.152981520E0,2.452640384E-1,1.985386014E0
2.492143417E0,-3.083238602E0,8.753786683E-1,1.973140836E0
2.502077417E0,-2.615320921E0,1.539217949E0,1.907080054E0
2.512011417E0,-1.888147354E0,2.071580410E0,1.787183404E0
2.521944417E0,-9.528868198E-1,1.725054622E0,1.563198447E0
2.531878417E0,-9.774696827E-2,1.063479900E0,1.253112197E0
2.541812417E0,5.120316744E-1,3.163872957E-1,9.292105436E-1
2.551746417E0,8.485012650E-1,-4.315170646E-1,6.004799008E-1
2.561680417E0,9.209917188E-1,-9.867891073E-1,2.773327231E-1
2.571614417E0,7.903988361E-1,-1.097875237E0,9.227063507E-3
2.581548417E0,5.010466576E-1,-7.150537372E-1,-1.739403605E-1
2.591481417E0,1.269736439E-1,6.094583496E-2,-2.346266508E-1
2.601415417E0,-2.311517298E-1,9.667776823E-1,-1.959769875E-1
2.611349417E0,-4.604306817E-1,1.681189179E0,-1.160287857E-1
2.621283417E0,-5.023062229E-1,2.004961014E0,-2.526346780E-2
2.631217417E0,-4.347104728E-1,1.899341226E0,6.476280838E-2
2.641151417E0,-3.464554250E-1,1.468064189E0,1.377041340E-1
2.651084417E0,-2.976064980E-1,9.376254678E-1,1.394900829E-1
2.661018417E0,-3.284751773E-1,6.498029828E-1,6.101550534E-2
2.670952417E0,-4.331783950E-1,7.004131675E-1,-6.221299618E-2
2.680886417E0,-5.698614120E-1,9.529197216E-1,-1.590652317E-1
2.690820417E0,-6.901773214E-1,1.202766418E0,-1.911877394E-1
2.700754417E0,-7.497453094E-1,1.283262610E0,-1.303310394E-1
2.710688417E0,-7.326811552E-1,1.150279045E0,1.857629791E-2
2.720621417E0,-6.375002861E-1,8.706321716E-1,2.597263455E-1
2.730555417E0,-4.758853316E-1,5.742585659E-1,5.685010552E-1
2.740489417E0,-2.998072505E-1,4.257639349E-1,9.115007520E-1
2.750423417E0,-1.940101236E-1,5.486226082E-1,1.212338805E0
2.760357417E0,-2.180749774E-1,9.182243347E-1,1.415616870E0
2.770291417E0,-3.293331861E-1,1.419592619E0,1.491228700E0
2.780225417E0,-4.444400668E-1,1.874602675E0,1.390538812E0
2.790158417E0,-5.056482553E-1,2.137209415E0,1.125884414E0
2.800092417E0,-5.170705318E-1,2.126570463E0,7.815270424E-1
2.810026417E0,-5.309119821E-1,1.840829611E0,4.374508560E-1
2.819960417E0,-5.589305758E-1,1.382035136E0,9.331078827E-2
2.829894417E0,-5.354491472E-1,9.019111991E-1,-3.057311475E-1
2.839828417E0,-4.580723643E-1,5.471895933E-1,-6.592926383E-1
2.849762417E0,-3.570088744E-1,3.382925093E-1,-8.954130411E-1
2.859696417E0,-2.637473643E-1,2.010385245E-1,-1.043735385E0
2.869629417E0,-1.635347605E-1,1.591045558E-1,-1.133486390E0
2.879563417E0,-4.228129983E-2,3.107374609E-1,-1.155657649E0
2.889497417E0,7.825253159E-2,5.358580947E-1,-1.155818939E0
2.899431417E0,1.405747533E-1,5.147101879E-1,-1.204793692E0
2.909365417E0,2.027501464E-1,1.894514561E-1,-1.328945518E0
2.919299417E0,3.354762495E-1,-3.081996143E-1,-1.521615267E0
2.929232417E0,5.247280598E-1,-9.121672511E-1,-1.760738015E0
2.939166417E0,7.103415728E-1,-1.551557779E0,-1.999222159E0
2.949100417E0,7.814865112E-1,-1.981401086E0,-2.203227043E0
2.959034417E0,6.999344230E-1,-2.014742374E0,-2.332698822E0
2.968968417E0,5.135113001E-1,-1.734823346E0,-2.341518641E0
2.978902417E0,2.599741518E-1,-1.324770808E0,-2.219497919E0
2.988836417E0,4.604300484E-3,-9.788005948E-1,-2.034775972E0
2.998770417E0,-1.354465485E-1,-8.014580011E-1,-1.833853602E0
3.008703417E0,-9.426701069E-2,-7.186046839E-1,-1.559355259E0
3.018637417E0,5.911454931E-2,-5.780994892E-1,-1.098050237E0
3.028571417E0,2.563171983E-1,-3.583759964E-1,-4.443340003E-1
3.038505417E0,5.468614101E-1,-3.212102652E-1,1.997203529E-1
3.048439417E0,9.874846935E-1,-7.180929184E-1,5.421221852E-1
3.058373417E0,1.425034285E0,-1.259140134E0,5.512941480E-1
3.068307417E0,1.749683142E0,-1.669164658E0,4.760583043E-1
3.078240417E0,1.910240412E0,-1.897629261E0,4.379852116E-1
3.088174417E0,1.918444633E0,-1.917280078E0,4.381191432E-1
3.098108417E0,1.822983623E0,-1.740589738E0,4.624790549E-1
3.108042417E0,1.638580680E0,-1.420741677E0,4.886814058E-1
3.117976417E0,1.355501294E0,-1.013794661E0,4.844056964E-1
3.127910417E0,9.639304876E-1,-6.079542637E-1,3.930349946E-1
3.137844417E0,4.738420546E-1,-2.932195365E-1,1.777016222E-1
3.147777417E0,-3.545900434E-2,-1.159579307E-1,-1.702427715E-1
3.157711417E0,-4.899628460E-1,-9.838479012E-2,-5.871592760E-1
3.167645417E0,-8.513559699E-1,-2.542918622E-1,-1.028370261E0
3.177579417E0,-1.075440168E0,-5.735527277E-1,-1.429597139E0
3.187513417E0,-1.177428007E0,-9.481314421E-1,-1.706726074E0
3.197447417E0,-1.186348438E0,-1.229746103E0,-1.779243708E0
3.207381417E0,-1.081972718E0,-1.320628881E0,-1.606353402E0
3.217315417E0,-8.199551702E-1,-1.221276641E0,-1.202744365E0
3.227248417E0,-3.593707681E-1,-9.724230766E-1,-6.168836355E-1
3.237182417E0,3.246642947E-1,-6.540059447E-1,6.817379594E-2
3.247116417E0,1.118614078E0,-3.606143296E-1,7.578281760E-1
3.257050417E0,1.827780128E0,-1.503683925E-1,1.276438355E0
3.266984417E0,2.303139687E0,-5.971780419E-2,1.485113502E0
3.276918417E0,2.505160332E0,-2.939265594E-2,1.427515507E0
3.286852417E0,2.426942110E0,-1.025445852E-2,1.214806437E0
3.296785417E0,2.084901333E0,3.294867277E-2,9.368968010E-1
3.306719625E0,1.535122752E0,5.577364936E-2,7.570520639E-1
3.316653625E0,8.985066414E-1,-5.696355179E-2,7.647821903E-1
