"Time (s)","Acceleration x (m/s^2)","Acceleration y (m/s^2)","Acceleration z (m/s^2)"
0.000000000E0,7.623610497E-1,3.238088131E0,8.005090714E0
2.479427000E-3,6.611520648E-1,3.252460957E0,8.072163582E0
4.958854000E-3,4.695138037E-1,3.162031651E0,8.115282059E0
7.438281000E-3,2.629037797E-1,3.142867804E0,8.210502625E0
9.917708000E-3,3.712991625E-2,3.080585480E0,8.224875450E0
1.239713500E-2,-1.407343596E-1,2.970393419E0,8.325485229E0
1.487656200E-2,-2.221806347E-1,2.908709764E0,8.540479660E0
1.735598900E-2,-2.173896730E-1,2.870382071E0,8.564435005E0
1.983541700E-2,-1.982258558E-1,2.851218224E0,8.654864311E0
2.231484400E-2,-1.215705350E-1,2.798517704E0,8.769846916E0
2.479427100E-2,-7.845192403E-2,2.793726921E0,8.841112137E0
2.727369800E-2,-1.557061076E-2,2.836845398E0,8.917767525E0
2.975312500E-2,8.983044326E-2,2.822472572E0,9.036942482E0
3.223255200E-2,1.904405504E-1,2.808099747E0,9.137553215E0
3.471197900E-2,3.587229252E-1,2.788935900E0,9.237564087E0
3.719140600E-2,5.270052552E-1,2.617060423E0,9.266309738E0
3.967083300E-2,6.419882774E-1,2.554777861E0,9.041733742E0
4.215026000E-2,7.623610497E-1,2.621851206E0,9.017779350E0
4.462968700E-2,9.012988210E-1,2.502077341E0,9.046525002E0
4.710911400E-2,1.026462555E0,2.334992647E0,8.951304436E0
4.958854200E-2,1.141445518E0,2.172100067E0,8.860276222E0
5.206796900E-2,1.295355082E0,2.091252804E0,8.869857788E0
5.454739600E-2,1.463038564E0,2.009806395E0,9.008196831E0
5.702682300E-2,1.640902758E0,1.885241628E0,8.956095695E0
5.950625000E-2,1.674439549E0,1.722947955E0,8.903394699E0
6.198567700E-2,1.636111856E0,1.641501665E0,8.869857788E0
6.446510400E-2,1.588202238E0,1.651083589E0,8.922558784E0
6.694453100E-2,1.521128893E0,1.631919742E0,8.807576180E0
6.942395800E-2,1.381592274E0,1.641501665E0,8.755474091E0
7.190338500E-2,1.184564114E0,1.713366032E0,8.779428482E0
7.438281200E-2,1.031253457E0,1.756484628E0,8.869857788E0
7.686223900E-2,7.958977222E-1,1.785230398E0,8.994422913E0
7.934166700E-2,5.557510257E-1,1.809185147E0,8.869857788E0
8.182109400E-2,3.730957806E-1,1.852303743E0,8.812366486E0
8.430052100E-2,1.569038481E-1,1.890032530E0,8.841112137E0
8.677994800E-2,-5.449713767E-2,1.985851765E0,8.779428482E0
8.925937500E-2,-2.317625433E-1,2.091252804E0,8.831530571E0
9.173880200E-2,-4.575363994E-1,2.091252804E0,8.789011002E0
9.421822900E-2,-6.258187890E-1,2.105625629E0,8.741101265E0
9.669765600E-2,-8.468016386E-1,2.224800587E0,8.574016571E0
9.917708300E-2,-1.004903197E0,2.378111362E0,8.468615532E0
1.016565100E-1,-1.106112242E0,2.439794779E0,8.401541710E0
1.041359370E-1,-1.273795724E0,2.511659145E0,8.186548233E0
1.066153640E-1,-1.418123245E0,2.593105555E0,8.067373276E0
1.090947920E-1,-1.442078114E0,2.678743839E0,7.881124496E0
1.115742190E-1,-1.485196710E0,2.812890768E0,7.718830585E0
1.140536460E-1,-1.466032863E0,2.994348288E0,7.603847980E0
1.165330730E-1,-1.365422726E0,3.071003437E0,7.484672546E0
1.190125000E-1,-1.341467977E0,3.128494978E0,7.417599201E0
1.214919270E-1,-1.283377647E0,3.233297110E0,7.369689941E0
1.239713540E-1,-1.158812761E0,3.257251978E0,7.317587852E0
1.264507810E-1,-1.057603836E0,3.285997629E0,7.308006287E0
1.289302080E-1,-1.014485121E0,3.314743519E0,7.197813988E0
1.314096350E-1,-8.995022178E-1,3.295579672E0,7.207396030E0
1.338890620E-1,-8.126661181E-1,3.319534302E0,7.284051418E0
1.363684890E-1,-7.024740577E-1,3.276415825E0,7.193023205E0
1.388479170E-1,-5.779091716E-1,3.281206846E0,7.250514507E0
1.413273440E-1,-4.719092846E-1,3.199760437E0,7.274469376E0
1.438067710E-1,-4.048358798E-1,3.152449846E0,7.322379112E0
1.462861980E-1,-2.940450013E-1,3.199760437E0,7.422390461E0
1.487656250E-1,-2.557173371E-1,3.109331131E0,7.603847980E0
1.512451040E-1,-2.269715965E-1,2.936856747E0,7.642175198E0
1.537245310E-1,-2.078077644E-1,2.903918982E0,7.675712109E0
1.562039580E-1,-1.359434128E-1,2.827263594E0,7.823632717E0
1.586833850E-1,-1.119886190E-1,2.693116665E0,7.981135845E0
1.611628120E-1,-1.071976647E-1,2.487704515E0,8.072163582E0
1.636422390E-1,-1.119886190E-1,2.425421953E0,8.224875450E0
1.661216670E-1,-1.263614893E-1,2.396676302E0,8.784219742E0
1.686010940E-1,-2.078077644E-1,2.215218782E0,9.232772827E0
1.710805210E-1,-3.036268950E-1,2.100834608E0,9.524422646E0
1.735599480E-1,-4.527454376E-1,2.019388437E0,9.811281204E0
1.760393750E-1,-5.485646129E-1,2.000224590E0,1.018377781E1
1.785188020E-1,-7.120559812E-1,2.005015612E0,1.044668198E1
1.809982290E-1,-8.803383708E-1,2.019388437E0,1.068503189E1
1.834776560E-1,-1.009694219E0,2.081670761E0,1.079522419E1
1.859570830E-1,-1.173185587E0,2.167309284E0,1.107250023E1
1.884365100E-1,-1.292959571E0,2.100834608E0,1.133480549E1
1.909159370E-1,-1.437287092E0,2.043343306E0,1.137313366E1
1.933953640E-1,-1.485196710E0,2.014597416E0,1.137792397E1
1.958747920E-1,-1.547479153E0,2.019388437E0,1.125395775E1
1.983542190E-1,-1.585806847E0,2.038552284E0,1.126354027E1
2.008336460E-1,-1.643897176E0,2.009806395E0,1.120125771E1
2.033130730E-1,-1.643897176E0,1.981060743E0,1.117730331E1
2.057925000E-1,-1.643897176E0,1.966687918E0,1.114376640E1
2.082719270E-1,-1.672642946E0,1.971478820E0,1.094314480E1
2.107513540E-1,-1.687015772E0,1.995433569E0,1.087187958E1
2.132307810E-1,-1.734925389E0,1.947524071E0,1.067125797E1
2.157102080E-1,-1.734925389E0,1.947524071E0,1.044668198E1
2.181896350E-1,-1.787625909E0,1.894823551E0,1.026941681E1
2.206690620E-1,-1.811580658E0,1.918778300E0,1.003585720E1
2.231484890E-1,-1.869670987E0,1.875659704E0,9.835235596E0
2.256279170E-1,-1.955908179E0,1.909196377E0,9.725044250E0
2.281073440E-1,-2.037354469E0,1.942733049E0,9.662761688E0
2.305867710E-1,-2.080473185E0,1.966687918E0,9.605869293E0
2.330661980E-1,-2.205636978E0,1.985851765E0,9.605869293E0
2.355456250E-1,-2.287083149E0,2.009806395E0,9.586705208E0
2.380250520E-1,-2.369128227E0,2.091252804E0,9.562750816E0
2.405044790E-1,-2.493693113E0,2.124190569E0,9.577123642E0
2.429839060E-1,-2.555975676E0,2.181682110E0,9.591496468E0
2.454633330E-1,-2.719466925E0,2.229591608E0,9.591496468E0
2.479427600E-1,-2.776958466E0,2.291874170E0,9.567541122E0
2.504221870E-1,-2.824867964E0,2.344574690E0,9.505258560E0
2.529016140E-1,-2.853613853E0,2.415840149E0,9.447767258E0
2.553810420E-1,-2.815286160E0,2.473331690E0,9.419620514E0
2.578604690E-1,-2.800913334E0,2.564359665E0,9.419620514E0
2.603398960E-1,-2.815286160E0,2.612269402E0,9.452558517E0
2.628193230E-1,-2.753003597E0,2.655387878E0,9.428603172E0
2.652987500E-1,-2.724257946E0,2.693116665E0,9.319010735E0
2.677781770E-1,-2.681139469E0,2.798517704E0,9.266309738E0
2.702576040E-1,-2.565557480E0,2.741026402E0,9.342965126E0
2.727370310E-1,-2.479320288E0,2.712280512E0,9.333383560E0
2.752164580E-1,-2.373919249E0,2.621851206E0,9.290265083E0
2.776958850E-1,-2.291874170E0,2.593105555E0,9.299846649E0
2.801753120E-1,-2.253546476E0,2.530822992E0,9.333383560E0
2.826547390E-1,-2.172100067E0,2.439794779E0,9.371710777E0
2.851341670E-1,-2.114608765E0,2.425421953E0,9.452558517E0
2.876135940E-1,-2.070891142E0,2.387693167E0,9.500468254E0
2.900930210E-1,-2.085263968E0,2.311038017E0,9.543586731E0
2.925724480E-1,-2.070891142E0,2.325410843E0,9.662761688E0
2.950518230E-1,-2.114608765E0,2.282292128E0,9.772953987E0
2.975310940E-1,-2.210427761E0,2.234382629E0,9.816072464E0
3.000104170E-1,-2.272710323E0,2.258337498E0,9.853800774E0
3.024897390E-1,-2.393083096E0,2.282292128E0,9.863383293E0
3.049690620E-1,-2.541602850E0,2.220009804E0,9.916083336E0
3.074483330E-1,-2.638020754E0,2.234382629E0,9.896919250E0
3.099276560E-1,-2.781749487E0,2.181682110E0,9.844219208E0
3.124069790E-1,-2.872777700E0,2.196054935E0,9.768162727E0
3.148862500E-1,-2.959613800E0,2.248755455E0,9.777744293E0
3.173655730E-1,-3.079387665E0,2.258337498E0,9.696298599E0
3.198448960E-1,-3.151850939E0,2.258337498E0,9.729834557E0
3.223242190E-1,-3.199760437E0,2.334992647E0,9.748998642E0
3.248034890E-1,-3.218924284E0,2.435003996E0,9.801699638E0
3.272828120E-1,-3.194969416E0,2.521241188E0,9.796908379E0
3.297621350E-1,-3.180596590E0,2.554777861E0,9.739417076E0
3.322414580E-1,-3.190178633E0,2.631433249E0,9.672343254E0
3.347207290E-1,-3.142268896E0,2.688325882E0,9.572332382E0
3.372000520E-1,-3.103342533E0,2.784144878E0,9.514841080E0
3.396793750E-1,-3.021896124E0,2.879964113E0,9.452558517E0
3.421586460E-1,-2.877568483E0,2.889545918E0,9.433394432E0
3.446379690E-1,-2.781749487E0,2.932065725E0,9.371710777E0
3.471172920E-1,-2.623049021E0,3.013511896E0,9.285473824E0
3.495966140E-1,-2.546393633E0,2.970393419E0,9.190253258E0
3.520758850E-1,-2.546393633E0,2.803308725E0,9.099225044E0
3.545552080E-1,-2.503275156E0,2.573941708E0,8.970468521E0
3.570345310E-1,-2.383501053E0,2.258337498E0,8.879440308E0
3.595138020E-1,-2.253546476E0,1.890032530E0,8.845903397E0
3.619931250E-1,-1.907998681E0,1.421716571E0,8.821949005E0
3.644724480E-1,-1.509151459E0,1.025264859E0,8.984841347E0
3.669517710E-1,-1.177976608E0,7.671520114E-1,9.214208603E0
3.694310420E-1,-8.174570799E-1,5.803046823E-1,9.371710777E0
3.719103640E-1,-4.527454376E-1,4.946663082E-1,9.466931343E0
3.743896870E-1,-1.694801003E-1,3.557285666E-1,9.510049820E0
3.768690100E-1,8.384174667E-3,3.365647495E-1,9.481304169E0
3.793482810E-1,2.533218563E-1,2.838642001E-1,9.395666122E0
3.818276040E-1,3.060223758E-1,3.605195284E-1,9.256728172E0
3.843069270E-1,3.587229252E-1,4.659205675E-1,9.027360916E0
3.867861980E-1,3.922595978E-1,5.180222392E-1,8.826739311E0
3.892655210E-1,1.137852296E-1,5.898866057E-1,8.932140350E0
3.917448440E-1,-9.761574864E-2,7.096605301E-1,9.099225044E0
3.942241670E-1,-1.197739271E-3,9.965190887E-1,9.323801041E0
3.967034370E-1,2.754800394E-2,1.307332397E0,9.223191261E0
3.991827600E-1,-7.366096228E-2,1.517535686E0,9.017779350E0
4.016620830E-1,-1.455253214E-1,1.675038338E0,8.807576180E0
4.041413540E-1,-2.269715965E-1,1.866077781E0,8.721937180E0
4.066206770E-1,-2.605082989E-1,2.062506914E0,8.927350044E0
4.091000000E-1,-3.904629946E-1,2.378111362E0,1.025085163E1
4.115793230E-1,-5.731182694E-1,2.559568882E0,1.197978783E1
4.140585940E-1,-5.922820568E-1,2.382902384E0,1.237144852E1
4.165379170E-1,-7.551746368E-1,2.152936459E0,1.129707718E1
4.190172390E-1,-1.101321220E0,2.128981590E0,1.001190281E1
4.214965620E-1,-1.489987612E0,2.301455975E0,9.295055389E0
4.239758330E-1,-1.744507194E0,2.497286320E0,8.932140350E0
4.264551560E-1,-2.027772665E0,2.655387878E0,8.855484962E0
4.289344790E-1,-2.243964434E0,2.832054615E0,8.975258827E0
4.314137500E-1,-2.412246943E0,3.027884960E0,9.113597870E0
4.338930730E-1,-2.560766459E0,3.142867804E0,9.290265083E0
4.363723960E-1,-2.666766405E0,3.209342480E0,9.405247688E0
4.388517190E-1,-2.748212814E0,3.290788651E0,9.534004211E0
4.413309890E-1,-2.805704355E0,3.343489170E0,9.720252991E0
4.438103120E-1,-2.848822832E0,3.400980711E0,9.916083336E0
4.462896350E-1,-2.911704063E0,3.367444038E0,1.009274960E1
4.487689060E-1,-3.017105341E0,3.372234821E0,1.009754086E1
4.512482290E-1,-3.060223818E0,3.381816864E0,1.001669312E1
4.537275520E-1,-3.036268950E0,3.295579672E0,9.744207382E0
4.562068750E-1,-2.930867910E0,3.228506088E0,9.462140083E0
4.586861460E-1,-2.858404875E0,3.090167284E0,9.104016304E0
4.611654690E-1,-2.781749487E0,3.066212654E0,8.755474091E0
4.636447920E-1,-2.570348501E0,3.032675743E0,8.415914536E0
4.661241140E-1,-2.464947462E0,2.918291807E0,8.196129799E0
4.686033850E-1,-2.287083149E0,2.812890768E0,8.220084190E0
4.710827080E-1,-2.119399548E0,2.702698708E0,8.105700493E0
4.735620310E-1,-1.946326375E0,2.583523512E0,8.086536407E0
4.760413020E-1,-1.720552444E0,2.435003996E0,8.158401489E0
4.785206250E-1,-1.590597749E0,2.344574690E0,8.258412361E0
4.809999480E-1,-1.470823884E0,2.287083149E0,8.396751404E0
4.834792710E-1,-1.466032863E0,2.272710323E0,8.511734009E0
4.859585420E-1,-1.461241961E0,2.349365473E0,8.592581749E0
4.884378640E-1,-1.461241961E0,2.411049128E0,8.674027443E0
4.909171870E-1,-1.466032863E0,2.463749647E0,8.741101265E0
4.933964580E-1,-1.571433902E0,2.511659145E0,8.721937180E0
4.958757810E-1,-1.619942307E0,2.612269402E0,8.726728439E0
4.983551040E-1,-1.667851925E0,2.693116665E0,8.645281792E0
5.008344270E-1,-1.710970521E0,2.774563074E0,8.502152443E0
5.033136980E-1,-1.830744505E0,2.870382071E0,8.387168884E0
5.057930210E-1,-1.855298162E0,3.018302917E0,8.301530838E0
5.082723440E-1,-1.830744505E0,3.003930092E0,8.463824272E0
5.107516670E-1,-1.860089064E0,3.142867804E0,8.497361183E0
5.132309370E-1,-1.907998681E0,3.181195498E0,8.354231834E0
5.157102600E-1,-1.893625736E0,3.190777302E0,8.267993927E0
5.181895830E-1,-2.003817797E0,3.218924284E0,8.224875450E0
5.206688540E-1,-2.196054935E0,3.285997629E0,8.167983055E0
5.231481770E-1,-2.229591608E0,3.300370455E0,8.248830795E0
5.256275000E-1,-2.220009804E0,3.281206846E0,8.478197098E0
5.281068230E-1,-2.296664953E0,3.194969416E0,8.406332970E0
5.305860940E-1,-2.393083096E0,3.185986519E0,8.282366753E0
5.330654170E-1,-2.479320288E0,3.194969416E0,8.215293884E0
5.355447390E-1,-2.508065939E0,3.152449846E0,8.244039536E0
5.380240100E-1,-2.599094152E0,3.190777302E0,8.076954842E0
5.405033330E-1,-2.676348448E0,3.142867804E0,7.833214760E0
5.429826560E-1,-2.719466925E0,3.176404476E0,7.627802372E0
5.454619790E-1,-2.695512295E0,3.157240629E0,7.303215027E0
5.479412500E-1,-2.671557426E0,3.118913174E0,7.121757507E0
5.504205730E-1,-2.647602558E0,3.138076782E0,7.016356468E0
5.528998960E-1,-2.628438950E0,3.099749327E0,6.949283123E0
5.553792190E-1,-2.575139523E0,3.142867804E0,6.834898949E0
5.578584890E-1,-2.546393633E0,3.209342480E0,6.810944557E0
5.603378120E-1,-2.599094152E0,3.157240629E0,6.944492340E0
5.628171350E-1,-2.695512295E0,3.075794458E0,7.431972027E0
5.652964060E-1,-2.800913334E0,2.889545918E0,8.564435005E0
5.677757290E-1,-2.950031757E0,2.664371014E0,9.471722603E0
5.702550520E-1,-3.088969469E0,2.626642227E0,9.476512909E0
5.727343750E-1,-3.117715359E0,2.645806074E0,8.697982788E0
5.752136460E-1,-3.166223764E0,2.664371014E0,7.794887066E0
5.776929690E-1,-3.132088184E0,2.659579992E0,7.632593632E0
5.801722920E-1,-3.132088184E0,2.573941708E0,7.952988625E0
5.826515620E-1,-3.161432743E0,2.530822992E0,8.282366753E0
5.851308850E-1,-3.190178633E0,2.511659145E0,8.654864311E0
5.876102080E-1,-3.271624804E0,2.401467323E0,8.826739311E0
5.900895310E-1,-3.281206846E0,2.415840149E0,8.765055656E0
5.925688020E-1,-3.276415825E0,2.444585800E0,8.511734009E0
5.950481250E-1,-2.647602558E0,2.526032209E0,7.995508671E0
5.975274480E-1,-9.569936991E-1,2.502077341E0,8.148818970E0
6.000067710E-1,9.060897827E-1,1.923569322E0,9.338173866E0
6.024860420E-1,1.055208325E0,9.869371653E-1,1.034607220E1
6.049653640E-1,3.108133376E-1,-1.077965349E-1,1.121563053E1
6.074446870E-1,-2.269715965E-1,-1.064191341E0,1.289725685E1
6.099239580E-1,-4.239996970E-1,-1.489388824E0,1.424890518E1
6.124032810E-1,-5.779091716E-1,-1.532507420E0,1.506157112E1
6.148826040E-1,-8.078751564E-1,-1.427106380E0,1.541011333E1
6.173619270E-1,-1.513942480E0,-1.154620647E0,1.508013630E1
6.198411980E-1,-2.426619768E0,-8.438073397E-1,1.433035183E1
6.223205210E-1,-3.103342533E0,-4.425646663E-1,1.370932388E1
6.247998440E-1,-3.564471960E0,-7.425983250E-2,1.299726772E1
6.272791140E-1,-4.039974689E0,2.269715965E-1,1.184624004E1
6.297584370E-1,-4.385522366E0,5.138301253E-1,1.068503189E1
6.322377600E-1,-4.750833035E0,7.575700879E-1,9.691507339E0
6.347170830E-1,-5.058053017E0,1.058202624E0,8.975258827E0
6.371963540E-1,-5.163454056E0,1.330688357E0,8.315903664E0
6.396756770E-1,-5.168244839E0,1.588801146E0,7.747576714E0
6.421550000E-1,-5.134708405E0,1.804394245E0,7.436763287E0
6.446342710E-1,-5.158663273E0,1.995433569E0,7.173859596E0
6.471135940E-1,-5.091589451E0,2.325410843E0,6.916345596E0
6.495929170E-1,-5.091589451E0,2.578732729E0,6.810944557E0
6.520722390E-1,-5.096380711E0,2.721862555E0,6.758244038E0
6.545515100E-1,-5.067635059E0,2.884755135E0,6.743870735E0
6.570308330E-1,-5.072425842E0,2.941647768E0,6.734289169E0
6.595101560E-1,-5.029307365E0,2.798517704E0,6.920537472E0
6.619894790E-1,-4.726878166E0,2.363738537E0,7.489463806E0
6.644687500E-1,-4.241793633E0,1.655874491E0,8.172175407E0
6.669480730E-1,-3.742336273E0,1.053411722E0,8.611745834E0
6.694273960E-1,-3.367444038E0,7.623610497E-1,8.473406792E0
6.719066670E-1,-3.147059917E0,7.048695683E-1,8.096118927E0
6.743859890E-1,-3.069805861E0,6.952876449E-1,7.714039803E0
6.768653120E-1,-2.906913280E0,7.240334153E-1,7.627802372E0
6.793446350E-1,-2.541602850E0,6.904966831E-1,7.613429546E0
6.818239060E-1,-2.320619822E0,7.096605301E-1,7.785305500E0
6.843032290E-1,-2.267919302E0,7.240334153E-1,7.966762543E0
6.867825520E-1,-2.051727295E0,6.425871253E-1,8.378186226E0
6.892618230E-1,-1.687015772E0,5.946775675E-1,8.869857788E0
6.917411460E-1,-1.206722260E0,5.755137205E-1,9.490885735E0
6.942204690E-1,-6.210278273E-1,5.707227588E-1,1.026941681E1
6.966997920E-1,-2.748811543E-1,3.988471627E-1,1.053711128E1
6.991790620E-1,-9.282479435E-2,2.551184595E-1,1.068982315E1
7.016583850E-1,-1.197739271E-3,2.599094212E-1,1.071377754E1
7.041377080E-1,-6.407905370E-2,2.694913447E-1,1.097189045E1
7.066170310E-1,-1.694801003E-1,3.126099408E-1,1.115813923E1
7.090963020E-1,-2.892540395E-1,4.659205675E-1,1.106291866E1
7.115756250E-1,-4.958640635E-1,6.377961636E-1,1.112460232E1
7.140549480E-1,-7.216379046E-1,8.479993939E-1,1.090481758E1
7.165342190E-1,-1.043230891E0,1.006101012E0,1.058502102E1
7.190135420E-1,-1.355840802E0,1.168394685E0,1.036044502E1
7.214928640E-1,-1.581015825E0,1.206722260E0,1.006400394E1
7.239721870E-1,-1.806789637E0,1.316914320E0,9.816072464E0
7.264514580E-1,-2.042145491E0,1.455253243E0,9.591496468E0
7.289307810E-1,-2.239173651E0,1.575027108E0,9.510049820E0
7.314101040E-1,-2.296664953E0,1.703784108E0,9.548377037E0
7.338893750E-1,-2.210427761E0,1.909196377E0,9.978365898E0
7.363686980E-1,-2.215218782E0,2.052925110E0,1.016940498E1
7.388480210E-1,-2.311038017E0,2.143354416E0,1.011670494E1
7.413273440E-1,-2.306246996E0,2.220009804E0,1.012628651E1
7.438066140E-1,-2.315828800E0,2.234382629E0,1.025983429E1
7.462859370E-1,-2.349365473E0,2.234382629E0,1.036044502E1
7.487652600E-1,-2.393083096E0,2.200845957E0,1.035086250E1
7.512445830E-1,-2.450574636E0,2.191263914E0,1.037002659E1
7.537238540E-1,-2.512856960E0,2.243964434E0,1.038919067E1
7.562031770E-1,-2.575139523E0,2.224800587E0,1.039877224E1
7.586825000E-1,-2.493693113E0,2.291874170E0,1.055627537E1
7.611617710E-1,-1.884043932E0,2.492495537E0,1.030774403E1
7.636410940E-1,-1.744507194E0,2.659579992E0,1.019336033E1
7.661204170E-1,-1.975072026E0,2.788935900E0,1.015982342E1
7.685997390E-1,-2.157727242E0,2.812890768E0,9.997529984E0
7.710790100E-1,-2.282292128E0,2.745817184E0,9.872964859E0
7.735583330E-1,-2.402664900E0,2.641015053E0,9.572332382E0
7.760376560E-1,-2.378710270E0,2.425421953E0,9.295055389E0
7.785169270E-1,-2.306246996E0,2.325410843E0,9.204626083E0
7.809962500E-1,-2.186473131E0,2.287083149E0,9.022569656E0
7.834755730E-1,-2.051727295E0,2.267919302E0,8.893813133E0
7.859548960E-1,-1.884043932E0,2.186473131E0,8.932140350E0
7.884341670E-1,-1.758880138E0,2.014597416E0,8.908185959E0
7.909134890E-1,-1.624733329E0,1.875659704E0,8.650073051E0
7.933928120E-1,-1.629524231E0,1.727738857E0,8.439869881E0
7.958718750E-1,-1.696597695E0,1.527117610E0,8.335067749E0
7.983508850E-1,-1.720552444E0,1.397761703E0,8.000299454E0
8.008298440E-1,-1.830744505E0,1.158812761E0,7.857169628E0
8.033088020E-1,-1.946326375E0,9.486095309E-1,7.861960411E0
8.057878120E-1,-2.128981590E0,9.198637605E-1,7.675712109E0
8.082667710E-1,-2.393083096E0,8.384174705E-1,7.603847980E0
8.107457290E-1,-2.690721273E0,9.246547222E-1,7.532582283E0
8.132247390E-1,-2.935658932E0,1.149230838E0,7.470299721E0
8.157036980E-1,-3.079387665E0,1.245049953E0,7.518209457E0
8.181826560E-1,-3.166223764E0,1.316914320E0,7.690084934E0
8.206616140E-1,-3.209342480E0,1.349852204E0,7.952988625E0
8.231406250E-1,-3.214133263E0,1.259422898E0,8.105700493E0
8.256195830E-1,-3.314743519E0,1.325897336E0,8.444661140E0
8.280985420E-1,-3.636336327E0,1.622337818E0,8.468615532E0
8.305775520E-1,-3.920200586E0,1.909196377E0,8.439869881E0
8.330565100E-1,-4.208256721E0,1.995433569E0,8.454242706E0
8.355354690E-1,-4.544222832E0,2.024179459E0,8.554852486E0
8.380144790E-1,-4.832279205E0,2.096043825E0,8.635700226E0
8.404934370E-1,-5.110753536E0,2.191263914E0,8.659654617E0
8.429723960E-1,-5.096380711E0,2.301455975E0,8.659654617E0
