,Time (s),Acceleration x (m/s^2),Acceleration y (m/s^2),Acceleration z (m/s^2)
0,0.0,-7.65426302,5.8610057829999995,5.765237807999999
1,0.005004,-7.65426302,5.8610057829999995,5.765237807999999
2,0.010009,-7.65426302,5.8610057829999995,5.765237807999999
3,0.015014,-7.65426302,5.8610057829999995,5.765237807999999
4,0.020019,-1.0462661979999999,5.640739441,6.871358871
5,0.025024,-1.15400517,5.561730385,6.926425457000001
6,0.030029,-1.309628367,5.343858242,7.024587631
7,0.034975,-1.55862534,4.963180065,7.192182064
8,0.040041,-1.9560627940000002,4.352658749,7.491456985
9,0.045046,-2.262520552,4.003105164,7.929595947
10,0.050051,-2.3199813369999998,3.9647979739999997,8.379706383
11,0.054873,-2.15478158,4.113238335,8.908824921
12,0.06,-2.090138197,4.223371983,9.076418877
13,0.065004,-1.951274395,4.426878929,9.425971985
14,0.070009,-1.769315004,4.639962673,9.603142737999999
15,0.075014,-1.5705963369999998,4.853046893999999,9.622296333
16,0.080019,-1.505952835,4.881777287,9.437943459
17,0.085024,-1.462857246,4.8554410930000005,9.126696587
18,0.090029,-1.431732655,4.7596731189999995,8.892065048
19,0.095034,-1.6807296280000001,4.608838081,8.971074104
20,0.100039,-2.097320795,4.407725333999999,8.724471092
21,0.105043,-2.410961151,4.254496574,8.171410561
22,0.110048,-2.52827692,4.108449936,7.7955207820000005
23,0.115053,-2.45166254,4.096478939,7.864952564
24,0.120058,-2.348711967,4.067748547,7.9894509320000004
25,0.125002,-2.257732153,4.127603531,7.941566944
26,0.130007,-2.087743998,4.192247391,7.802703381000001
27,0.135012,-1.833958507,4.326322556,7.733271599
28,0.139833,-1.422155857,4.527435303,7.7955207820000005
29,0.145021,-1.010353088,4.740519524,7.9104423520000005
30,0.150026,-0.5817909836999999,4.917690277,8.068459511
31,0.155031,-0.2992752194,5.032611847,8.137891769
32,0.160036,-0.2681505978,4.939238071,8.090007782
33,0.165041,-0.5123591423,4.769249916000001,8.018181801
34,0.170046,-0.8690952062999999,4.513070107,8.018181801
35,0.175051,-1.201889277,4.295197964,8.238448143
36,0.180055,-1.244984865,4.182670593,8.813055992
37,0.184999,-1.156399369,4.082113743,9.58638382
38,0.190004,-1.1276689770000001,4.027047157,10.33337498
39,0.195009,-1.089361787,3.957615376,10.91277122
40,0.200014,-0.9768342972,3.960009575,11.20486355
41,0.204836,-0.873883605,3.643975019,10.96065521
42,0.210024,-0.8643068075,3.768473387,10.52969933
43,0.215028,-1.060631394,3.94085598,9.976638794
44,0.220033,-1.3862427469999998,3.971980572,9.710882187000001
45,0.225038,-1.766920805,3.8402996060000003,9.260771751
46,0.230043,-1.948880196,3.677493811,8.547300339
47,0.235048,-1.953668594,3.588908434,7.946355343
48,0.240053,-1.8579005,3.538630009,7.673416615
49,0.245058,-1.55862534,3.548206806,7.747636795
50,0.250002,-1.18991828,3.60566783,7.876923561
51,0.255006,-0.691924274,3.7421371939999997,8.082824707
52,0.260011,-0.2322375625,3.998316765,8.303091048999999
53,0.265016,0.09816227107999999,4.209006786000001,8.6957407
54,0.270021,0.27054479719999996,4.345476151000001,9.179368972999999
55,0.275026,0.31842881440000004,4.367023945,9.734824181
56,0.280031,0.2657563984,4.321534157,10.0508585
57,0.285036,0.2849099934,4.213795185,10.26154804
58,0.29004,0.349553436,4.110844135,10.3214035
59,0.295045,0.38546648619999996,3.924096584,10.0364933
60,0.30005,0.2059013397,3.584120035,9.612719536
61,0.305055,-0.107739076,3.1818940639999997,9.088389397
62,0.311037,-0.586579442,2.7844564910000003,8.358158112
63,0.316041,-0.8810662031000001,2.662352324,7.833827972000001
64,0.321046,-0.8020575643000001,2.8012158869999997,7.769184589
65,0.326051,-0.5482721925,3.059789658,7.965508937999999
66,0.331056,-0.117315881,3.4045548439999997,8.274360657
67,0.336,0.2753331959,3.7325603960000002,8.508993149
68,0.341005,0.6488286853,4.029441357,8.453926086000001
69,0.34601,0.9265560508,4.225766182,8.137891769
70,0.352052,1.000776291,4.359841347,7.570465565
71,0.357057,0.8283938169,4.304774761,7.048529625
72,0.36194,0.7134721279,4.187458992,6.698976517
73,0.366945,0.04309562966,4.000710964,7.074865817999999
74,0.37201,-0.5339069963,3.711012602,7.381323814
75,0.377015,-0.7852981687,3.303998232,7.697358607999999
76,0.381959,-0.7469909190999999,2.863465309,8.106766701
77,0.387025,-0.4596867263,2.458845139,8.576030731
78,0.393007,-0.059855043889999994,2.066195965,9.040505409
79,0.398011,0.1149216816,1.78128612,9.504981041
80,0.403016,0.08140286057999999,1.6496049169999998,9.87608242
81,0.408021,-0.1149216816,1.59932673,10.18732834
82,0.413026,-0.4189853072,1.668758631,10.09156036
83,0.418031,-0.8188169598999999,1.850717902,9.828198432999999
84,0.423036,-1.175553083,2.19308877,9.583989143
85,0.428041,-1.335964561,2.650381327,9.267954826
86,0.433045,-1.125274777,3.2800562380000002,8.573636055
87,0.43805,-0.8619126081,3.38300705,8.262390137
88,0.444032,-1.810016513,3.4620156289999997,7.833827972000001
89,0.449037,-1.8148049119999998,3.236960649,7.979874134
90,0.454042,-1.517923832,2.762908697,8.434772491
91,0.459046,-1.163581967,2.30561614,8.901641846
92,0.464051,-0.6679822803000001,1.965639591,9.107542992
93,0.469056,-0.9840168953,1.704671621,9.174580574
94,0.474,-2.003946781,1.546654344,9.131484985
95,0.479005,-2.41574955,1.5945383309999999,9.124302864
96,0.48401,-0.7541735172,1.1492167709999999,9.026140213
97,0.489015,0.9911994934,0.5506663918,9.105149269
98,0.494019,2.094926596,0.2082955539,9.387664795
99,0.499024,2.640804529,0.09576806426000001,9.835380554
100,0.504029,3.478775024,0.2130839527,10.24239445
101,0.509034,4.027047157,0.4070142806,10.09156036
102,0.514039,4.307168961,0.6153098345,9.591172217999999
103,0.519044,4.141968727,0.7805097699,8.906430244
104,0.524049,3.813963413,0.873883605,8.518569946
105,0.529054,3.3949780460000003,0.8020575643000001,8.571242332
106,0.534058,2.782062292,0.6105214357,8.77235508
107,0.539002,1.8890250919999998,0.2633621991,9.200917244
108,0.544007,1.1923124790000001,-0.09576806426000001,9.615114212
109,0.549012,0.7445967197,-0.5602431892999999,10.08677197
110,0.554017,0.35673606399999996,-1.010353088,10.53688145
111,0.558961,-0.059855043889999994,-1.381454349,10.74996567
112,0.564027,-0.42137950659999995,-1.620874524,11.07797146
113,0.569031,-0.787692368,-1.683123827,11.6118784
114,0.574036,-1.216254473,-1.532289028,12.20324612
115,0.579041,-1.249773264,-1.304839969,12.46421432
116,0.584046,-0.7254431248000001,-0.921767652,12.42351246
117,0.589051,0.3351882398,-0.4070142806,12.02368069
118,0.594056,1.620874524,0.2011129409,11.65976238
119,0.599,2.549824715,0.806845963,11.48498535
120,0.604005,2.9999346730000003,1.41257906,11.54005241
121,0.609009,3.260902643,1.939303398,11.28626728
122,0.614014,3.210624456,2.2194249630000003,10.9151659
123,0.619019,2.834734917,2.250549555,10.29027843
124,0.624024,2.183511972,2.147598982,9.481039047000001
125,0.629029,1.3431471590000001,1.912967205,8.588001251
126,0.634034,0.517147541,1.618480325,7.88171196
127,0.639039,-0.3423708379,1.1420341729999999,7.115567684
128,0.64502,-0.8212111592,0.7254431248000001,6.533776283
129,0.650025,-1.00556469,0.1532289088,6.327875137
130,0.65503,-1.098938584,-0.23702596129999998,6.358999729
131,0.660035,-1.206677675,-0.5291185975,6.562506676
132,0.66504,-1.357512355,-0.6512228847,6.6582751270000005
133,0.670044,-1.4891934390000001,-0.6344634295,6.540958881
134,0.675049,-1.307234168,-0.5075707436,6.3063273429999995
135,0.680054,-0.5626373887,-0.2346317619,6.2201361660000005
136,0.685059,0.0143652102,-0.01197100803,6.428431511
137,0.690003,0.3663128614,0.2944868207,6.907271862000001
138,0.696045,0.7254431248000001,0.6727706790000001,7.58722496
139,0.70105,1.0534487959999999,1.00317049,8.315062523
140,0.706055,1.146822572,1.288080573,9.56004715
141,0.710999,0.9935936928,1.405396342,10.9247427
142,0.716004,0.9097966552,1.379060149,12.02128696
143,0.721009,1.15161097,1.165976286,12.68687439
144,0.726013,1.587355733,0.8930372595999999,12.31098557
145,0.731018,2.066195965,0.5674257874,11.38921738
146,0.736023,2.437297344,0.2466027737,10.32379818
147,0.741028,2.516305923,0.07422025502,9.514557838
148,0.746033,2.281674147,0.0718260482,9.006986617999999
149,0.751038,1.881842494,0.1891419291,8.805873871000001
150,0.75586,1.256955862,0.2633621991,9.203310966
151,0.761048,0.9720458984,0.2442085743,9.47146225
152,0.766052,0.2968810201,0.09337386489,9.938331604
153,0.771057,-0.2513911724,-0.181959331,10.04367638
154,0.776001,-0.5267243981,-0.4788403511,9.756371498
155,0.781006,-0.5698199868,-0.758961916,9.143456459
156,0.786011,-0.4501099288,-1.027112484,8.403648376
157,0.791016,-0.2442085743,-1.422155857,7.675810814
158,0.796021,-0.1101332754,-1.74776721,7.307103634
159,0.801025,-0.09097966552000002,-1.9560627940000002,7.031770229
160,0.80603,-0.08379705995,-2.097320795,6.689399719
161,0.811035,-0.02154781483,-2.1140801909999998,6.258443356
162,0.81604,0.4716577232,-2.123656988,5.9328317639999995
163,0.821045,0.7757213712000001,-2.099714994,5.537788391
164,0.82605,0.6392518282,-2.023100376,4.936843872
165,0.831055,0.5650315881,-1.8914192909999998,4.345476151000001
166,0.83606,0.4548983276,-1.6615760330000002,4.165910721
167,0.841003,0.2202665508,-1.285686255,4.522646904
168,0.846008,-0.3112462163,-0.8331822157,5.35343504
169,0.851013,-0.873883605,-0.2801215947,6.646304131
170,0.856018,-0.9050082564,0.2681505978,8.645462036
171,0.861023,-0.47644615170000004,0.3040636182,10.10831928
172,0.866028,-0.1723825186,-0.2059013397,11.06599998
173,0.871033,-0.04309562966,-1.165976286,11.25274754
174,0.876038,0.03351882473,-2.355894566,10.83855152
175,0.881042,0.23702596129999998,-3.5194764139999997,10.19211674
176,0.887024,0.6416460276,-4.853046893999999,9.569623947
177,0.893005,0.9361328483,-5.810727596,9.33020401
178,0.89801,0.7541735172,-6.038176537000001,9.344569206000001
179,0.903015,0.2466027737,-5.882553577,9.437943459
180,0.90802,-0.09097966552000002,-5.736507416,9.375694275
181,0.913025,-0.1987187415,-5.7748146060000005,9.141061783
182,0.91803,-0.07900865376,-5.808333397,8.066065788
183,0.923034,0.6871358752,-5.209783077,5.327098846
184,0.928039,2.190694571,-3.9073371889999997,2.583343744
185,0.934021,4.378994942,-2.090138197,0.6631938815
186,0.939026,5.825092793,-1.058237195,0.5267243981
187,0.94403,6.694188118,-0.2202665508,1.613691926
188,0.949035,6.572083472999999,0.1364694983,3.155557871
189,0.95404,5.966350555,0.1053448766,4.94642067
190,0.959045,5.207388878,-0.3926490843,7.082048416
191,0.96405,4.582501888,-1.37666595,9.03571701
192,0.969055,4.311957359,-2.52827692,10.55842972
193,0.975036,4.616020679,-3.6655228139999996,11.55681133
194,0.980041,5.226542473,-4.189853191,11.9566431
195,0.985046,5.920860767000001,-4.328716755,12.12184334
196,0.990051,6.155492783,-4.2066125869999995,12.04044056
197,0.996032,6.074089527000001,-4.242525578,11.64539719
198,1.001037,5.91128397,-4.469974518,11.16176796
199,1.006042,5.892130375,-4.726154327,10.6254673
200,1.011047,6.030993938,-4.929661274,10.23760605
201,1.016052,6.074089527000001,-4.86741209,9.878476143
202,1.021057,5.963956356000001,-4.687847136999999,9.378087997
203,1.026,5.781997204,-4.4316673280000005,8.877699852000001
204,1.031005,5.779603004,-4.077325344,7.867346764
205,1.035952,6.086060524,-3.373430252,6.337451935
206,1.041018,6.653486729,-2.3199813369999998,4.872200489
207,1.046023,7.601590633,-1.290474772,3.8331170080000003
208,1.051027,8.961497307,-0.4860229492,3.8881835939999996
209,1.056032,10.59673691,0.5243301988,5.659893036000001
210,1.061037,11.5975132,2.1763293740000003,7.065289021
211,1.066042,11.73158836,1.460463047,8.319850922
212,1.071047,11.29584408,-0.3663128614,9.931148529
213,1.076052,10.59434223,-2.4971523280000003,11.53047562
214,1.081057,9.48343277,-4.65193367,13.43865395
215,1.086,7.850587367999999,-6.232107162,15.19120979
216,1.091005,5.705382824,-7.496245384,16.67561531
217,1.09601,4.6184148789999995,-7.539340973,17.47527885
218,1.101015,3.670311213,-8.0229702,17.63808441
219,1.10602,3.368641853,-8.238448143,17.47288322
220,1.111025,4.003105164,-7.273584842999999,17.06587029
221,1.117006,4.8554410930000005,-5.549759387999999,16.18001556
222,1.122011,4.12999773,-3.811569214,15.78257751
223,1.127016,2.6072857380000003,-2.564189911,14.89432907
224,1.132021,1.563413739,-3.8043866160000004,12.28225517
225,1.137026,3.0286650660000003,-3.4452562330000003,10.23760605
226,1.142031,3.3016040330000003,-3.6655228139999996,10.07240677
227,1.147035,2.916137695,-3.282450438,11.16176796
228,1.15204,1.800439715,-2.67432332,11.75074196
229,1.157045,0.5458779931000001,-2.700659513,11.79144382
230,1.16205,-0.23942017559999998,-3.01429987,10.47702694
231,1.167055,-0.5482721925,-3.56496644,9.011775017
232,1.171999,-0.7326257229,-4.161122322,8.705317497000001
233,1.176943,-0.9911994934,-4.853046893999999,9.679757118
234,1.182009,-1.307234168,-5.104437828,11.23120022
235,1.187013,-1.8315643069999998,-5.245696068,12.30619717
236,1.192018,-2.561795712,-5.626373768,12.43069553
237,1.196962,-3.1890766619999997,-6.248866558,12.17212105
238,1.202028,-3.5290532110000004,-6.423643112000001,10.6302557
239,1.207033,-2.863465309,-5.901707172,9.502586365
240,1.211855,-1.620874524,-5.3223104480000005,8.283937454
241,1.217043,-0.8283938169,-4.819528103000001,8.236053467
242,1.222047,0.05746084079,-3.928884983,7.99423933
243,1.226991,0.7445967197,-3.287238836,7.501033783
244,1.232057,1.3431471590000001,-2.487575531,7.201758862
245,1.237001,1.742978811,-2.3942017559999997,7.5441293720000004
246,1.241945,1.89860189,-2.671929121,8.080430984
247,1.247011,1.9416975980000002,-3.0573954580000002,8.473079681
248,1.252016,1.726219416,-3.505111217,8.650250435
249,1.256959,1.7190368180000002,-3.593696833,8.918401718
250,1.262025,1.589749932,-3.775655985,8.753201485
251,1.26703,0.43095630409999997,-4.448426723,7.213729858
252,1.271974,-0.07661445438999999,-4.850652695,6.670246124
253,1.27704,0.2442085743,-4.841075897,7.517793179
254,1.282045,1.5346833469999999,-4.4891281130000005,9.10036087
255,1.28705,3.277662039,-4.302380562,10.00058079
256,1.293031,7.017405032999999,-3.761290789,13.21120453
257,1.298036,8.080430984,-3.703830004,12.86165142
258,1.303041,5.125985622,-4.146757126000001,9.13866806
259,1.308046,0.6129156351,-4.003105164,7.290344237999999
260,1.312868,3.6391866210000003,-2.437297344,11.03726959
261,1.317872,3.624821424,-2.513911724,11.11388397
262,1.322999,3.337517262,-2.916137695,11.60469532
263,1.328004,3.0573954580000002,-3.009511471,9.871294022
264,1.333009,2.612074137,-2.7748796939999996,8.887276649
265,1.338014,1.654393315,-2.250549555,7.673416615
266,1.343019,0.9959878922,-1.8650830980000002,7.745242596000001
267,1.348024,0.5410895943999999,-1.812410712,7.266402245
268,1.353029,0.8092401624,-1.7908629180000002,5.992686749
269,1.358033,-0.5770025849,-2.511517525,4.699818134
270,1.363038,-1.623268723,-3.318363667,2.15478158
271,1.368043,-1.9560627940000002,-4.161122322,1.393425345
272,1.373048,-3.687070608,-3.141192675,1.97042799
273,1.377931,-2.382230759,-0.6607996821000001,6.442796707
274,1.383058,-0.8212111592,-0.9193734526999999,7.864952564
275,1.388002,0.39743748310000004,-1.769315004,9.583989143
276,1.393007,0.85473001,-2.573766708,11.12106705
277,1.398011,1.108515382,-3.356670856,12.58152962
278,1.403016,1.723825216,-3.1172506810000002,13.21599293
279,1.408021,1.070208192,-3.7517139910000004,14.23352909
280,1.413026,0.2992752194,-4.515464306,14.22874069
281,1.418031,-1.331176162,-5.750872612,14.32450867
282,1.423036,-2.755726099,-6.488286495,13.19205093
283,1.428041,-3.514688015,-6.576871872000001,11.59990692
284,1.433045,-3.3087866310000003,-6.2632317539999995,9.22725296
285,1.43805,-2.403778553,-6.325480937999999,6.718130112000001
286,1.443055,-1.086967587,-6.500257492,6.358999729
287,1.447999,1.843535304,-5.4731450079999995,6.99106884
288,1.453004,4.838681698,-4.357447147,7.972691536
289,1.458009,7.065289021,-3.505111217,9.011775017
290,1.463014,8.346187592,-2.944868088,9.773131371
291,1.468019,8.925583839,-3.0526070589999996,10.24000072
292,1.473023,9.363722801,-3.4165258410000003,10.18253994
293,1.478028,9.696516991000001,-3.730166197,9.9526968
294,1.483033,9.940725327000001,-4.005499363,9.603142737999999
295,1.488038,10.29027843,-4.046200752,9.016563416
296,1.493043,10.50815105,-4.096478939,8.50420475
297,1.498048,10.70208168,-4.228160381,8.147468567
298,1.503053,10.80024433,-4.563348293,8.106766701
299,1.508057,10.50336266,-5.394136429,8.154650688
300,1.513001,9.971850395,-6.3422403339999995,8.233659744
301,1.518006,9.351752281,-7.199364662000001,8.408436775
302,1.523011,8.46589756,-7.735665797999999,8.647856712000001
303,1.528016,7.357381821000001,-8.058882713,8.70771122
304,1.533021,6.3781533239999995,-8.238448143,8.228871346
305,1.538026,5.786785602999999,-8.274360657,7.347805022999999
306,1.543031,5.781997204,-8.001421928,6.095637321
307,1.548035,6.208165169,-7.498639584,5.166687489
308,1.55304,6.811503887000001,-6.888118267,4.352658749
309,1.558045,7.273584842999999,-6.380547523,3.655946016
310,1.56305,7.508216381,-6.227318764,3.167528868
311,1.568055,7.6566572189999995,-6.303933144,2.865859509
312,1.572999,7.9104423520000005,-6.497863292999999,2.48996973
313,1.578004,8.38928318,-6.612784863,2.035071373
314,1.583008,8.693346024,-6.732495308,1.922544003
315,1.588013,8.604761124,-7.0700774189999995,2.094926596
316,1.593018,7.924807549,-7.76679039,2.33913517
317,1.597901,5.4156842229999995,-9.935936928,2.3870191569999997
318,1.603028,3.315969467,-11.68370438,2.6647465230000003
319,1.608033,0.9457096456999999,-12.86643982,4.106055737
320,1.613038,0.09097966552000002,-12.9334774,4.843470097
321,1.618043,-1.546654344,-14.04917526,4.50109911
322,1.623047,-3.040636063,-15.35641003,3.6918590069999997
323,1.627991,-4.405331135,-16.35958099,3.586514235
324,1.633057,-4.728548527,-16.42182922,1.22583127
325,1.63794,-4.541800499,-15.60780048,-1.606509328
326,1.643006,-3.8331170080000003,-13.72595787,-3.82593441
327,1.648011,-4.168305397,-12.08353615,-1.391031146
328,1.653016,-1.091755986,-10.82418633,-1.6615760330000002
329,1.657959,1.4580688480000001,-10.04846478,-2.202665567
330,1.663025,2.67432332,-9.414001465,-0.7996633648999999
331,1.66803,3.6679170130000003,-8.710105896,0.5913678407999999
332,1.673035,5.291185856,-7.635109425,0.2873041928
333,1.67804,6.260837555,-7.520187377999999,-1.5825673340000002
334,1.683045,5.104437828,-8.489839554,-1.659181833
335,1.68805,3.5817258360000004,-9.911994933999999,-0.14604631070000001
336,1.693055,2.86107111,-11.45386124,2.33913517
337,1.699036,3.035847664,-12.96460247,4.192247391
338,1.705017,3.01190567,-12.9478426,4.783615112
339,1.710022,3.0214824680000003,-12.23676491,4.3813891410000005
340,1.715027,3.0573954580000002,-11.95185471,4.137180328
341,1.720032,3.069366693,-12.11705494,4.426878929
342,1.725037,2.698265314,-12.22479343,5.116408825
343,1.729859,2.557007313,-11.93748951,5.288791656
344,1.735047,2.8538885119999997,-11.2838726,5.054159641
345,1.740052,3.4979286189999996,-10.54166985,4.295197964
346,1.745056,4.096478939,-9.703699112,3.430891037
347,1.749878,4.659116745,-8.767566681,2.67671752
348,1.755005,4.979939461,-8.243236542,2.430114746
349,1.76001,5.4875102039999994,-7.797914982000001,2.549824715
350,1.765015,5.94959116,-7.371747017000001,2.7509377
351,1.77002,6.162675381000001,-6.957550049,2.875436306
352,1.775025,6.184223175,-6.720524311,2.954444885
353,1.781006,6.021417141000001,-6.7612257,2.3846249580000003
354,1.786011,5.8322753910000005,-6.936002254,2.011129379
355,1.791016,5.707777022999999,-7.094019413,1.89620769
356,1.796021,5.4156842229999995,-7.326257228999999,2.0183119769999998
357,1.801025,5.001487255,-7.347805022999999,1.8890250919999998
358,1.80603,4.474762917,-7.402871609,1.731007814
359,1.811035,4.003105164,-7.663839817,1.455674648
360,1.81604,3.6631286139999997,-8.125920296,2.135627985
361,1.822022,4.2568907739999995,-8.38928318,3.9073371889999997
362,1.827026,5.31273365,-8.219294547999999,5.640739441
363,1.832031,6.361393929,-7.991845131,7.364564419
364,1.837036,7.388506412999999,-7.864952564,8.616731644
365,1.842041,8.255207062,-7.752425194,8.604761124
366,1.847046,8.942343712000001,-7.627926826,7.709329605
367,1.852051,9.030928612,-7.2687964439999995,5.748478413
