"Time (s)","Acceleration x (m/s^2)","Acceleration y (m/s^2)","Acceleration z (m/s^2)"
0.000000000E0,-1.438915253E0,-5.841852188E0,4.132391930E0
2.288819000E-3,-1.319205165E0,-5.748478413E0,4.000710964E0
4.028321000E-3,-1.132457376E0,-5.609614372E0,3.928884983E0
6.011963000E-3,-9.816226959E-1,-5.635950565E0,3.751713991E0
8.026123000E-3,-8.643068075E-1,-5.702988625E0,3.514688015E0
1.000976600E-2,-7.852981687E-1,-5.734113216E0,3.296815634E0
1.199340900E-2,-7.326257229E-1,-5.734113216E0,3.114856482E0
1.397705100E-2,-6.679822803E-1,-5.662287235E0,2.987963676E0
1.593017600E-2,-5.817909837E-1,-5.681440830E0,2.817975283E0
1.794433600E-2,-4.548983276E-1,-5.762843609E0,2.564189911E0
1.995849600E-2,-3.998316824E-1,-5.803544998E0,2.413355350E0
2.194213900E-2,-3.543418646E-1,-5.880159378E0,2.054224968E0
2.392578200E-2,-3.327940404E-1,-5.932831764E0,1.558625340E0
2.593994200E-2,-2.513911724E-1,-5.999869347E0,8.738836050E-1
2.792358400E-2,-1.101332754E-1,-6.133944988E0,1.675941236E-2
2.993774400E-2,9.816227108E-2,-6.323086739E0,-8.738836050E-1
3.195190500E-2,3.639186621E-1,-6.526593685E0,-1.628057122E0
3.393554700E-2,6.536170840E-1,-6.730101109E0,-2.178723574E0
3.591919000E-2,9.241618514E-1,-6.916848660E0,-2.568978310E0
3.790283200E-2,1.144428372E0,-7.089231014E0,-2.853888512E0
3.991699300E-2,1.335964561E0,-7.228095055E0,-3.057395458E0
4.190063500E-2,1.546654344E0,-7.340622425E0,-3.150769472E0
4.388427800E-2,1.819593310E0,-7.455543995E0,-3.169923067E0
4.589843800E-2,2.154781580E0,-7.541735172E0,-3.112462282E0
4.788208000E-2,2.557007313E0,-7.613561630E0,-2.952050686E0
4.986572300E-2,2.985569477E0,-7.680599213E0,-2.686294317E0
5.184936600E-2,3.390189648E0,-7.766790390E0,-2.334346771E0
5.383300800E-2,3.809175014E0,-7.874529362E0,-1.934514999E0
5.584716800E-2,4.218583584E0,-7.989450932E0,-1.508347034E0
5.783081100E-2,4.611232281E0,-8.125920296E0,-1.070208192E0
5.984497100E-2,4.932055473E0,-8.274360657E0,-6.655880809E-1
6.182861400E-2,5.181052685E0,-8.439560890E0,-3.184288144E-1
6.384277400E-2,5.351040840E0,-8.650250435E0,3.112462163E-2
6.582641600E-2,5.509057999E0,-8.901641846E0,4.165911078E-1
6.781005900E-2,5.679046631E0,-9.155426979E0,8.259995580E-1
6.979370100E-2,5.829881191E0,-9.433155060E0,1.228225470E0
7.180786200E-2,5.980715752E0,-9.730035782E0,1.606509328E0
7.379150400E-2,6.133944988E0,-1.005564690E1,2.001552582E0
7.580566400E-2,6.229712963E0,-1.040041256E1,2.367865562E0
7.778930700E-2,6.208165169E0,-1.077869606E1,2.717418909E0
7.980346700E-2,6.110002518E0,-1.120486355E1,3.031059265E0
8.178711000E-2,6.023811340E0,-1.169328117E1,3.325546265E0
8.377075200E-2,6.035782337E0,-1.221521664E1,3.581725836E0
8.578491200E-2,6.160281181E0,-1.277785492E1,3.813963413E0
8.776855500E-2,6.368576527E0,-1.337640476E1,4.039018154E0
8.975219800E-2,6.667851925E0,-1.400368595E1,4.237737179E0
9.173584000E-2,7.050923824E0,-1.464054298E1,4.422090530E0
9.375000000E-2,7.489062786E0,-1.526782417E1,4.601655483E0
9.573364300E-2,8.039729118E0,-1.587595177E1,4.790797710E0
9.774780300E-2,8.650250435E0,-1.645774269E1,4.994304657E0
9.973144600E-2,9.275136948E0,-1.699404335E1,5.202600479E0
1.017456060E-1,9.892841339E0,-1.747048950E1,5.370194435E0
1.037292480E-1,1.051772785E1,-1.784877396E1,5.549759388E0
1.057434090E-1,1.116655636E1,-1.812650108E1,5.798756599E0
1.077575690E-1,1.180580902E1,-1.829888344E1,6.110002518E0
1.097412110E-1,1.247139645E1,-1.835634422E1,6.454767704E0
1.117248540E-1,1.314177322E1,-1.828212357E1,6.797138691E0
1.137084960E-1,1.378581333E1,-1.805467415E1,7.117961884E0
1.156921390E-1,1.430774975E1,-1.765723801E1,7.419631004E0
1.177062990E-1,1.458787060E1,-1.708502388E1,7.694964409E0
1.197204590E-1,1.461420727E1,-1.638831139E1,7.908048153E0
1.217041020E-1,1.447773743E1,-1.562456036E1,8.022970200E0
1.236877440E-1,1.415930843E1,-1.486081028E1,8.015787125E0
1.257019050E-1,1.372356415E1,-1.412818432E1,7.900865555E0
1.276855470E-1,1.329500198E1,-1.344823074E1,7.659051418E0
1.296691900E-1,1.267490387E1,-1.281616211E1,7.314286232E0
1.316528320E-1,1.219127464E1,-1.226310158E1,7.036558628E0
1.336364750E-1,1.200692177E1,-1.179144382E1,6.749254704E0
1.356506350E-1,1.187524033E1,-1.135809326E1,6.368576527E0
1.376342780E-1,1.167173290E1,-1.100135708E1,5.980715752E0
1.396484380E-1,1.127668953E1,-1.069250488E1,5.600037575E0
1.416320800E-1,1.077151299E1,-1.040041256E1,5.238513470E0
1.436462410E-1,1.030703831E1,-1.012268448E1,4.905719280E0
1.456298830E-1,9.909601212E0,-9.825803757E0,4.589684486E0
1.476440430E-1,9.536105156E0,-9.502586365E0,4.276044369E0
1.496582030E-1,9.124302864E0,-9.193734169E0,3.995922565E0
1.516418460E-1,8.623914719E0,-8.901641846E0,3.761290789E0
1.536254890E-1,8.020575523E0,-8.611943245E0,3.531447411E0
1.556091310E-1,7.362170219E0,-8.322244644E0,3.284844637E0
1.575927740E-1,6.684611320E0,-8.049305916E0,2.999934673E0
1.595764160E-1,5.980715752E0,-7.783549786E0,2.683900118E0
1.615295410E-1,5.245696068E0,-7.501033783E0,2.370259762E0
1.635437010E-1,4.491522312E0,-7.206547260E0,2.121262789E0
1.655273440E-1,3.737348795E0,-6.945579052E0,1.922544003E0
1.675109870E-1,2.990357876E0,-6.703764915E0,1.719036818E0
1.694946290E-1,2.274491549E0,-6.466738701E0,1.510741234E0
1.715087890E-1,1.604115129E0,-6.253654957E0,1.309628367E0
1.734924320E-1,9.959878922E-1,-6.078877926E0,1.132457376E0
1.755065920E-1,4.213795066E-1,-5.942408562E0,9.600749016E-1
1.774902350E-1,-8.619125932E-2,-5.856217384E0,7.661445141E-1
1.795043950E-1,-5.171475410E-1,-5.832275391E0,5.770025849E-1
1.814880370E-1,-8.858546019E-1,-5.875370979E0,4.213795066E-1
1.835021980E-1,-1.158793569E0,-5.999869347E0,2.849099934E-1
1.854858400E-1,-1.312022567E0,-6.210559368E0,1.173158810E-1
1.875000000E-1,-1.321599364E0,-6.533776283E0,-1.340752989E-1
1.894836430E-1,-1.165976286E0,-6.971915245E0,-5.793967843E-1
1.914672850E-1,-8.595184088E-1,-7.484274387E0,-1.391031146E0
1.934509280E-1,-4.955997467E-1,-8.025363922E0,-2.561795712E0
1.954345710E-1,-1.723825186E-1,-8.583212852E0,-3.706224203E0
1.974182130E-1,1.221042871E-1,-9.131484985E0,-4.548983097E0
1.994323730E-1,3.758896589E-1,-9.662998199E0,-5.125985622E0
2.014160160E-1,5.698199868E-1,-1.021366405E1,-5.499481201E0
2.034301760E-1,6.895300746E-1,-1.077630138E1,-5.592854977E0
2.053833010E-1,7.062895298E-1,-1.136527538E1,-5.339069843E0
2.073974610E-1,6.440402865E-1,-1.194227791E1,-4.805162907E0
2.093811040E-1,6.392518282E-1,-1.249533844E1,-4.067748547E0
2.113647460E-1,6.919242740E-1,-1.306755257E1,-3.253720045E0
2.133483890E-1,7.134721279E-1,-1.337401104E1,-2.873042107E0
2.153320320E-1,7.422025204E-1,-1.403959846E1,-2.214636564E0
2.173461920E-1,7.398083210E-1,-1.470997524E1,-1.644816518E0
2.193298340E-1,7.948749661E-1,-1.531091976E1,-1.084573388E0
2.213439940E-1,9.552865028E-1,-1.585919189E1,-6.272808313E-1
2.233276370E-1,1.189918280E0,-1.641464615E1,-3.016694188E-1
2.253417970E-1,1.393425345E0,-1.699643707E1,-1.292868853E-1
2.273254400E-1,1.462857246E0,-1.755668068E1,-9.097966552E-2
2.293396000E-1,1.419761658E0,-1.807143402E1,-1.771709323E-1
2.313537600E-1,1.292868972E0,-1.849520874E1,-3.232172430E-1
2.333374030E-1,1.187524080E0,-1.872026253E1,-4.285621047E-1
2.353210450E-1,1.130063176E0,-1.874899292E1,-5.267243981E-1
2.373046880E-1,1.034295082E0,-1.861970711E1,-6.320692301E-1
2.393188480E-1,8.523358107E-1,-1.832043076E1,-7.062895298E-1
2.413024910E-1,5.793967843E-1,-1.784877396E1,-7.589619160E-1
2.433166510E-1,2.849099934E-1,-1.724304008E1,-7.445967197E-1
2.453002930E-1,-6.703764945E-2,-1.652956772E1,-7.302315235E-1
2.473144530E-1,-4.285621047E-1,-1.574905872E1,-7.230489254E-1
2.492980960E-1,-7.589619160E-1,-1.494221306E1,-7.278373241E-1
2.512817390E-1,-1.063025594E0,-1.414494324E1,-7.469909191E-1
2.532653810E-1,-1.278503656E0,-1.339316463E1,-7.565677166E-1
2.552795410E-1,-1.450886250E0,-1.271560478E1,-7.469909191E-1
2.572631840E-1,-1.553836942E0,-1.212423706E1,-7.038952708E-1
2.592773440E-1,-1.616086125E0,-1.163342571E1,-6.177040339E-1
2.612609870E-1,-1.623268723E0,-1.125035381E1,-4.860229492E-1
2.632446290E-1,-1.539471745E0,-1.095347309E1,-3.375824392E-1
2.652282720E-1,-1.412579060E0,-1.072602367E1,-1.867477298E-1
2.672424320E-1,-1.280897856E0,-1.057518864E1,-5.506663769E-2
2.692260750E-1,-1.125274777E0,-1.049618053E1,1.053448766E-1
2.712402350E-1,-9.840168953E-1,-1.049378586E1,2.537853718E-1
2.732238770E-1,-8.714894056E-1,-1.052730465E1,3.495534360E-1
2.752380370E-1,-7.924807668E-1,-1.058716011E1,3.998316824E-1
2.772216800E-1,-7.445967197E-1,-1.067574501E1,4.596867263E-1
2.792358400E-1,-7.062895298E-1,-1.081700325E1,5.458779931E-1
2.812194830E-1,-6.655880809E-1,-1.100614548E1,6.296750307E-1
2.832336430E-1,-6.105214357E-1,-1.121683502E1,6.847416759E-1
2.852478030E-1,-5.650315881E-1,-1.140358257E1,6.919242740E-1
2.872314460E-1,-5.530605912E-1,-1.153286934E1,7.038952708E-1
2.892150880E-1,-6.129156351E-1,-1.162384892E1,7.637503147E-1
2.911987310E-1,-7.302315235E-1,-1.168609810E1,8.164227605E-1
2.932128910E-1,-8.930372596E-1,-1.171722317E1,8.523358107E-1
2.951660160E-1,-1.065419793E0,-1.175313568E1,8.978256583E-1
2.971801760E-1,-1.221042871E0,-1.179144382E1,9.433154464E-1
2.991638190E-1,-1.407790542E0,-1.183214474E1,9.528923035E-1
3.011779790E-1,-1.644816518E0,-1.182496262E1,9.361328483E-1
3.031616210E-1,-1.884236693E0,-1.177947235E1,8.978256583E-1
3.051757820E-1,-2.042253971E0,-1.171482849E1,8.930372596E-1
3.071899420E-1,-2.173935175E0,-1.160709000E1,9.097966552E-1
3.091735840E-1,-2.372653961E0,-1.144428444E1,9.409212470E-1
3.111572270E-1,-2.640804529E0,-1.123598862E1,1.007958889E0
3.131408690E-1,-2.968810081E0,-1.100135708E1,1.134851575E0
3.151550300E-1,-3.327940464E0,-1.075235939E1,1.280897856E0
3.171386720E-1,-3.706224203E0,-1.050096893E1,1.403002143E0
3.191223150E-1,-4.077325344E0,-1.027351952E1,1.474828243E0
3.211059570E-1,-4.429273129E0,-1.006522369E1,1.525106430E0
3.230896000E-1,-4.735731125E0,-9.871294022E0,1.599326730E0
3.250732430E-1,-4.967968464E0,-9.703699112E0,1.726219416E0
3.270568850E-1,-5.102043629E0,-9.528923035E0,1.896207690E0
3.290405280E-1,-5.171475887E0,-9.344569206E0,2.085349798E0
3.310546880E-1,-5.209783077E0,-9.165003777E0,2.312798738E0
3.330383300E-1,-5.286397457E0,-8.999804497E0,2.547430515E0
3.349914550E-1,-5.418078423E0,-8.848969460E0,2.765302896E0
3.370056160E-1,-5.597643375E0,-8.710105896E0,2.949656487E0
3.390197760E-1,-5.714959621E0,-8.607154846E0,3.059789658E0
3.410034180E-1,-5.647922039E0,-8.561665535E0,3.105279684E0
3.430175780E-1,-5.382165432E0,-8.564059258E0,3.110068083E0
3.450012210E-1,-4.953603268E0,-8.578424454E0,3.110068083E0
3.469848640E-1,-4.465186119E0,-8.590395927E0,3.107673883E0
3.489685060E-1,-4.015076160E0,-8.602366447E0,3.114856482E0
3.509826660E-1,-3.646369219E0,-8.607154846E0,3.122039080E0
3.529663090E-1,-3.375824451E0,-8.571242332E0,3.136404276E0
3.549804690E-1,-3.215412855E0,-8.497021675E0,3.160346270E0
3.569641120E-1,-3.105279684E0,-8.401253700E0,3.203441858E0
3.589782720E-1,-3.002328873E0,-8.286332130E0,3.246537447E0
3.609619140E-1,-2.849100113E0,-8.164227486E0,3.253720045E0
3.629760750E-1,-2.671929121E0,-8.063671112E0,3.191470861E0
3.649597170E-1,-2.489969730E0,-7.967903137E0,3.093308687E0
3.669738770E-1,-2.308010340E0,-7.872135162E0,2.990357876E0
3.689575200E-1,-2.121262789E0,-7.781155586E0,2.901772499E0
3.709411620E-1,-1.968033791E0,-7.702147007E0,2.858676910E0
3.729248050E-1,-1.824381709E0,-7.649474621E0,2.858676910E0
3.749084480E-1,-1.702277422E0,-7.613561630E0,2.901772499E0
3.768920900E-1,-1.596932530E0,-7.608773232E0,2.978386879E0
3.788757330E-1,-1.484405041E0,-7.632715225E0,3.069366693E0
3.808898930E-1,-1.345541358E0,-7.694964409E0,3.155557871E0
3.828735350E-1,-1.182735682E0,-7.778761387E0,3.251325846E0
3.848876960E-1,-9.696516991E-1,-7.836222172E0,3.366247654E0
3.868713380E-1,-6.823474765E-1,-7.908048153E0,3.483563423E0
3.888854980E-1,-4.405331016E-1,-8.013393402E0,3.591302633E0
3.908691410E-1,-2.777273953E-1,-8.113949776E0,3.699041605E0
3.928833010E-1,-8.379705995E-2,-8.214506149E0,3.794809580E0
3.948364260E-1,1.699883193E-1,-8.331821442E0,3.864241600E0
3.968505860E-1,3.998316824E-1,-8.439560890E0,3.948038578E0
3.988647460E-1,6.320692301E-1,-8.537723541E0,4.213795185E0
4.008483890E-1,8.475474119E-1,-8.652645111E0,4.484339714E0
4.028320320E-1,9.911994934E-1,-8.755595207E0,4.886565685E0
4.048461920E-1,1.103726983E0,-8.846575737E0,5.353435040E0
4.068298340E-1,1.249773264E0,-8.944737434E0,5.853823185E0
4.088134770E-1,1.405396342E0,-9.047688484E0,6.330269337E0
4.107971190E-1,1.517923832E0,-9.138668060E0,6.754043102E0
4.128112800E-1,1.606509328E0,-9.215282440E0,7.103596210E0
4.147644050E-1,1.654393315E0,-9.248801231E0,7.237671852E0
4.167785650E-1,1.769315004E0,-9.313444138E0,7.412448406E0
4.187622070E-1,1.905784607E0,-9.356540680E0,7.484274387E0
4.207763680E-1,2.049436569E0,-9.349357605E0,7.477091789E0
4.227600100E-1,2.185906172E0,-9.308655739E0,7.426813602E0
4.247741700E-1,2.291250944E0,-9.255983353E0,7.362170219E0
4.267578130E-1,2.375048161E0,-9.193734169E0,7.285555840E0
4.287414550E-1,2.461239338E0,-9.133879662E0,7.189787865E0
4.307250980E-1,2.561795712E0,-9.097966194E0,7.062894821E0
4.327087410E-1,2.681505919E0,-9.081207275E0,6.885724068E0
4.347229010E-1,2.839523315E0,-9.057265282E0,6.658275127E0
4.367065430E-1,3.011905670E0,-9.018958092E0,6.406883717E0
4.387207030E-1,3.023876667E0,-8.961497307E0,6.181828976E0
4.407043460E-1,2.995146275E0,-8.875306129E0,6.002263546E0
4.427185060E-1,3.014299870E0,-8.748413086E0,5.832275391E0
4.447021490E-1,3.055001259E0,-8.628703117E0,5.655104637E0
4.467163090E-1,3.064578056E0,-8.532935143E0,5.477933407E0
4.486999510E-1,3.052607059E0,-8.446743965E0,5.305551052E0
4.506835940E-1,3.019088268E0,-8.362946510E0,5.142745018E0
4.526672370E-1,2.987963676E0,-8.281543732E0,4.991910458E0
4.546508790E-1,2.983175278E0,-8.192957878E0,4.848258495E0
4.566345220E-1,2.973598480E0,-8.109161377E0,4.707000732E0
4.586181640E-1,2.916137695E0,-8.025363922E0,4.548983097E0
4.606323250E-1,2.822763920E0,-7.943961143E0,4.395754337E0
4.626159670E-1,2.738966703E0,-7.884106159E0,4.252102375E0
4.646301270E-1,2.688688517E0,-7.836222172E0,4.122815132E0
4.666137700E-1,2.652775526E0,-7.809885979E0,4.010287762E0
4.686279300E-1,2.624045134E0,-7.805097580E0,3.955221176E0
4.706420900E-1,2.624045134E0,-7.809885979E0,3.952826977E0
4.726257330E-1,2.664746523E0,-7.831433773E0,3.892971992E0
4.745788580E-1,2.748543501E0,-7.888894558E0,3.744531393E0
4.765930180E-1,2.851494312E0,-7.977479935E0,3.574543238E0
4.785461430E-1,2.983175278E0,-8.087613106E0,3.423708439E0
4.805603030E-1,3.129221678E0,-8.224082947E0,3.296815634E0
4.825439460E-1,3.258508444E0,-8.358158112E0,3.186682463E0
4.845581060E-1,3.361459255E0,-8.487444878E0,3.088520288E0
4.865112310E-1,3.435679436E0,-8.635885239E0,3.007117271E0
4.885253910E-1,3.493140221E0,-8.777143478E0,2.935291290E0
4.905090340E-1,3.526659012E0,-8.916007042E0,2.844311714E0
4.925231940E-1,3.517082214E0,-9.078812599E0,2.734178305E0
4.944763190E-1,3.495534420E0,-9.258378029E0,2.585737944E0
4.964904790E-1,3.500322819E0,-9.449913979E0,2.331952572E0
4.984741210E-1,3.526659012E0,-9.670180321E0,1.980004787E0
5.004882820E-1,3.579331636E0,-9.921571732E0,1.501164436E0
5.024719240E-1,3.636792421E0,-1.019211674E1,3.016694188E-1
5.044860840E-1,3.634398222E0,-1.051772785E1,-2.473210335E0
5.065002440E-1,3.529053211E0,-1.087685871E1,-5.920860767E0
5.084838870E-1,3.201047659E0,-1.121683502E1,-9.114726067E0
5.104675300E-1,2.880224705E0,-1.142034245E1,-1.104445267E1
5.124511720E-1,2.607285738E0,-1.150653362E1,-1.186087513E1
5.144653320E-1,2.255337954E0,-1.153047562E1,-1.188721180E1
5.164489750E-1,1.841141105E0,-1.152089882E1,-1.135809326E1
5.184631350E-1,1.539471745E0,-1.148738003E1,-1.055842972E1
5.204467780E-1,1.405396342E0,-1.145625496E1,-9.634267807E0
5.224304200E-1,1.347935557E0,-1.139400578E1,-8.669404030E0
5.244140630E-1,1.268926859E0,-1.127429581E1,-7.637503624E0
5.264282230E-1,1.233013868E0,-1.111149025E1,-6.521805286E0
5.284118660E-1,1.266532660E0,-1.091995430E1,-5.363011837E0
5.304260260E-1,1.321599364E0,-1.071405220E1,-4.165910721E0
5.324401860E-1,1.347935557E0,-1.050575733E1,-3.066972494E0
5.344238280E-1,1.288080573E0,-1.029506683E1,-2.121262789E0
5.364074710E-1,1.072602391E0,-1.009395409E1,-1.307234168E0
5.384216310E-1,8.164227605E-1,-9.900024414E0,-6.320692301E-1
5.404052740E-1,6.153098345E-1,-9.706093788E0,-6.703764945E-2
5.424194340E-1,4.477157295E-1,-9.514557838E0,3.950432837E-1
5.444335940E-1,3.351882398E-1,-9.299078941E0,7.757213712E-1
5.464172370E-1,1.987187415E-1,-9.078812599E0,1.134851575E0
5.484008790E-1,2.394201607E-2,-8.887276649E0,1.508347034E0
5.503845220E-1,-1.268926859E-1,-8.722076416E0,1.886630893E0
5.523986820E-1,-2.394201756E-1,-8.580819130E0,2.264914751E0
5.543823250E-1,-2.705447972E-1,-8.477868080E0,2.676717520E0
5.563659670E-1,-2.370259613E-1,-8.420407295E0,3.102885485E0
5.583496100E-1,-1.292868853E-1,-8.401253700E0,3.490746021E0
5.603637700E-1,5.027823523E-2,-8.401253700E0,3.818751812E0
5.623474120E-1,3.040636182E-1,-8.415618896E0,4.103661537E0
5.643310550E-1,5.722141862E-1,-8.441955566E0,4.280832767E0
5.663146980E-1,8.930372596E-1,-8.465897560E0,4.331110954E0
5.683288580E-1,1.261744261E0,-8.485051155E0,4.311957359E0
5.703125000E-1,1.637633920E0,-8.477868080E0,4.280832767E0
5.722961430E-1,1.963245392E0,-8.453926086E0,4.223371983E0
5.742797850E-1,2.229001760E0,-8.415618896E0,4.120420933E0
5.762939460E-1,2.528276920E0,-8.370129585E0,3.979163170E0
5.782775880E-1,2.913743496E0,-8.293514252E0,3.720589399E0
5.802917480E-1,3.359065056E0,-8.188169479E0,3.354276657E0
5.822753910E-1,3.620033026E0,-8.056488991E0,2.975992680E0
5.842590340E-1,3.624821424E0,-7.934384346E0,2.664746523E0
5.862426760E-1,3.541024208E0,-7.852981567E0,2.437297344E0
5.882263190E-1,3.514688015E0,-7.795520782E0,2.250549555E0
5.902099610E-1,3.569754839E0,-7.742848396E0,2.051830769E0
5.922241210E-1,3.651157618E0,-7.699752808E0,1.850717902E0
5.942077640E-1,3.725377798E0,-7.687781811E0,1.680729628E0
5.962219240E-1,3.749319792E0,-7.711723804E0,1.549048543E0
5.982055670E-1,3.744531393E0,-7.762001991E0,1.460463047E0
6.002197270E-1,3.722983599E0,-7.831433773E0,1.434126854E0
6.022033690E-1,3.701435804E0,-7.912836552E0,1.462857246E0
6.042175300E-1,3.725377798E0,-7.996633530E0,1.537077546E0
6.062011720E-1,3.761290789E0,-8.046912193E0,1.637633920E0
6.082153320E-1,3.653551817E0,-8.080430984E0,1.788468719E0
6.101989750E-1,3.543418407E0,-8.087613106E0,1.889025092E0
6.121826180E-1,3.265691042E0,-8.109161377E0,2.111685991E0
6.141662600E-1,3.014299870E0,-8.152256966E0,2.348711967E0
6.161499030E-1,2.815581083E0,-8.209717751E0,2.588132143E0
6.181335450E-1,2.652775526E0,-8.264783859E0,2.803610086E0
6.201171880E-1,2.494758129E0,-8.315062523E0,3.035847664E0
6.221008300E-1,2.367865562E0,-8.358158112E0,3.244143248E0
6.240844730E-1,2.274491549E0,-8.408436775E0,3.473986626E0
6.260681160E-1,2.152387381E0,-8.461109161E0,3.689464808E0
6.280517580E-1,2.049436569E0,-8.508993149E0,3.859453201E0
6.300354010E-1,1.977610588E0,-8.564059258E0,4.031835556E0
6.320190430E-1,1.924938202E0,-8.626308441E0,4.177882195E0
6.340332030E-1,1.929726601E0,-8.710105896E0,4.335899353E0
6.360168460E-1,1.946485996E0,-8.796297073E0,4.496310711E0
6.380310060E-1,1.975216389E0,-8.882488251E0,4.623203278E0
6.400146490E-1,2.003946781E0,-8.963891029E0,4.690241337E0
6.420288090E-1,2.054224968E0,-9.038111687E0,4.733336926E0
6.440429690E-1,2.145204782E0,-9.133879662E0,4.750096321E0
6.460266120E-1,2.209848166E0,-9.255983353E0,4.742913723E0
6.480102540E-1,2.219424963E0,-9.373299599E0,4.711789131E0
6.500244140E-1,2.276885748E0,-9.449913979E0,4.656722069E0
6.520080570E-1,2.401384354E0,-9.507374763E0,4.584896088E0
6.539917000E-1,2.583343744E0,-9.545681953E0,4.489128113E0
6.560058600E-1,2.724601507E0,-9.560047150E0,4.395754337E0
6.579895020E-1,2.753331900E0,-9.564835548E0,4.323928356E0
6.599731450E-1,2.671929121E0,-9.550470352E0,4.247313976E0
6.619873050E-1,2.535459518E0,-9.500192642E0,4.218583584E0
6.639709480E-1,2.418143749E0,-9.416395187E0,4.276044369E0
6.659545900E-1,2.475604534E0,-9.287108421E0,4.304774761E0
6.679382330E-1,2.647987127E0,-9.121908188E0,4.242525578E0
6.699218750E-1,2.882618904E0,-8.925583839E0,4.086902142E0
