"Time (s)","Acceleration x (m/s^2)","Acceleration y (m/s^2)","Acceleration z (m/s^2)"
0.000000000E0,5.602480173E-1,-8.208030701E0,-4.949564934E0
1.003864600E-2,6.848139763E-1,-7.187548161E0,-5.375964165E0
1.254765700E-2,7.662609816E-1,-7.177966118E0,-5.328053951E0
1.505661500E-2,9.052000046E-1,-7.039027214E0,-5.222651958E0
1.756552100E-2,9.579010010E-1,-6.952788830E0,-5.069340229E0
2.007453200E-2,9.818559885E-1,-6.900087833E0,-4.959146976E0
2.258354200E-2,1.106421947E0,-6.933625221E0,-4.815416813E0
2.509255200E-2,1.226197004E0,-6.938416004E0,-4.580657959E0
2.760151100E-2,1.393882036E0,-6.991117001E0,-4.365063190E0
3.011052100E-2,1.547194004E0,-6.995907784E0,-4.202168941E0
3.261947900E-2,1.575940013E0,-7.010281086E0,-3.976991892E0
3.512849000E-2,1.681342006E0,-7.077354908E0,-3.751815081E0
3.763744800E-2,1.801116943E0,-7.086936951E0,-3.545802116E0
4.014645900E-2,1.853818059E0,-7.240249157E0,-3.368535042E0
4.291359400E-2,1.987965941E0,-7.369606018E0,-3.148149014E0
4.542260400E-2,2.059830904E0,-7.427097797E0,-2.966090918E0
4.793156300E-2,2.141278028E0,-7.513336182E0,-2.750495911E0
5.044057300E-2,2.174814939E0,-7.537291050E0,-2.501363993E0
5.294953200E-2,2.222724915E0,-7.580410004E0,-2.271395922E0
5.545854200E-2,2.227515936E0,-7.661857128E0,-2.060591936E0
5.796750000E-2,2.222724915E0,-7.738512993E0,-1.916862011E0
6.047651100E-2,2.170023918E0,-7.906198025E0,-1.797086954E0
6.298546900E-2,2.064621925E0,-8.016390800E0,-1.658148050E0
6.549447900E-2,1.987965941E0,-8.121792793E0,-1.571910024E0
6.800343800E-2,1.858608961E0,-8.198449135E0,-1.528790951E0
7.051244800E-2,1.681342006E0,-8.308642387E0,-1.490463018E0
7.316812500E-2,1.571148992E0,-8.375716209E0,-1.524000049E0
7.567713600E-2,1.417837024E0,-8.533819199E0,-1.514418006E0
7.818609400E-2,1.202242017E0,-8.644012451E0,-1.480880976E0
8.069510400E-2,1.058511972E0,-8.720667839E0,-1.538372993E0
8.320406300E-2,8.956180215E-1,-8.797324181E0,-1.591073990E0
8.571307300E-2,7.662609816E-1,-8.897934914E0,-1.706058025E0
8.822208400E-2,6.321129799E-1,-8.965008736E0,-1.725221992E0
9.073104200E-2,4.788010120E-1,-9.056037903E0,-1.763550043E0
9.324005200E-2,3.877719939E-1,-9.108738899E0,-1.830623984E0
9.574901100E-2,2.679969966E-1,-9.123111725E0,-1.936025977E0
9.825802100E-2,1.913409978E-1,-9.127902985E0,-1.964771986E0
1.007669790E-1,1.530130059E-1,-9.147067070E0,-2.070173979E0
1.034586460E-1,1.051030010E-1,-9.228513718E0,-2.204322100E0
1.059676570E-1,1.886500046E-2,-9.247677803E0,-2.261814117E0
1.084766150E-1,2.844700031E-2,-9.324334145E0,-2.314515114E0
1.109856250E-1,1.407399960E-2,-9.343498230E0,-2.376797915E0
1.134945840E-1,1.407399960E-2,-9.329125404E0,-2.415126085E0
1.160035940E-1,-5.090000108E-3,-9.329125404E0,-2.477408886E0
1.185126040E-1,-3.383599967E-2,-9.362662315E0,-2.549273968E0
1.210215630E-1,-3.862699866E-2,-9.343498230E0,-2.558856010E0
1.235305730E-1,2.365599945E-2,-9.290797234E0,-2.549273968E0
1.260395320E-1,5.719299987E-2,-9.271633148E0,-2.573229074E0
1.285484900E-1,7.635699958E-2,-9.238096237E0,-2.549273968E0
1.310575000E-1,1.578039974E-1,-9.190185547E0,-2.501363993E0
1.337491670E-1,1.913409978E-1,-9.137484550E0,-2.534900904E0
1.362581770E-1,1.578039974E-1,-9.137484550E0,-2.467827082E0
1.387671360E-1,2.296690047E-1,-9.036873817E0,-2.443871975E0
1.412761460E-1,2.727879882E-1,-8.979381561E0,-2.372006893E0
1.437851040E-1,2.967430055E-1,-8.902726173E0,-2.290560007E0
1.462941150E-1,3.494440019E-1,-8.854816437E0,-2.242650032E0
1.488031250E-1,4.117270112E-1,-8.806905746E0,-2.146830082E0
1.513120840E-1,4.692189991E-1,-8.802115440E0,-2.089338064E0
1.538210940E-1,5.410839915E-1,-8.706295013E0,-2.051009893E0
1.563300520E-1,5.362930298E-1,-8.667966843E0,-1.959980965E0
1.588390630E-1,5.842030048E-1,-8.648802757E0,-1.873743057E0
1.613480210E-1,6.369040012E-1,-8.658385277E0,-1.849787951E0
1.640443230E-1,6.848139763E-1,-8.586520195E0,-1.797086954E0
1.665533340E-1,8.141710162E-1,-8.576937675E0,-1.730013013E0
1.690622920E-1,8.285440207E-1,-8.557773590E0,-1.725221992E0
1.715713020E-1,8.572900295E-1,-8.605684280E0,-1.696475983E0
1.740802610E-1,8.477079868E-1,-8.629638672E0,-1.696475983E0
1.765892710E-1,8.620809913E-1,-8.620057106E0,-1.715639949E0
1.790982820E-1,8.812450171E-1,-8.639221191E0,-1.768340945E0
1.816072400E-1,8.620809913E-1,-8.615265846E0,-1.763550043E0
1.841162500E-1,8.093799949E-1,-8.648802757E0,-1.725221992E0
1.866252090E-1,7.902160287E-1,-8.715876579E0,-1.806668997E0
1.891342190E-1,7.854250073E-1,-8.691922188E0,-1.811460018E0
1.916431770E-1,7.470970154E-1,-8.667966843E0,-1.902488947E0
1.943310420E-1,7.087690234E-1,-8.620057106E0,-1.964771986E0
1.968400520E-1,6.800230145E-1,-8.644012451E0,-2.012681961E0
1.993490110E-1,5.794119835E-1,-8.634429932E0,-2.017472982E0
2.018580210E-1,4.979650080E-1,-8.620057106E0,-2.074965000E0
2.043669790E-1,4.740099907E-1,-8.644012451E0,-2.113292933E0
2.068759900E-1,4.356819987E-1,-8.620057106E0,-2.118083954E0
2.093850000E-1,4.165180027E-1,-8.667966843E0,-2.146830082E0
2.118939590E-1,3.829810023E-1,-8.687130928E0,-2.175575972E0
2.144029170E-1,3.254890144E-1,-8.711086273E0,-2.252232075E0
2.169119270E-1,3.302800059E-1,-8.682339668E0,-2.233067989E0
2.194209380E-1,2.775790095E-1,-8.696713448E0,-2.257023096E0
2.219298960E-1,2.632060051E-1,-8.735040665E0,-2.252232075E0
2.246256770E-1,2.536239922E-1,-8.749414444E0,-2.271395922E0
2.271346880E-1,2.344599962E-1,-8.696713448E0,-2.271395922E0
2.296436460E-1,2.344599962E-1,-8.725459099E0,-2.271395922E0
2.321526570E-1,2.248779982E-1,-8.739831924E0,-2.309724092E0
2.346616150E-1,2.296690047E-1,-8.720667839E0,-2.338469982E0
2.371706250E-1,2.200870067E-1,-8.725459099E0,-2.295351028E0
2.396796360E-1,2.009229958E-1,-8.720667839E0,-2.266604900E0
2.421885940E-1,2.057140023E-1,-8.735040665E0,-2.276186943E0
2.446975520E-1,2.200870067E-1,-8.792532921E0,-2.319305897E0
2.472065630E-1,2.105049938E-1,-8.735040665E0,-2.309724092E0
2.497155730E-1,2.440419942E-1,-8.773368835E0,-2.266604900E0
2.522245320E-1,2.727879882E-1,-8.802115440E0,-2.300142050E0
2.549201570E-1,2.967430055E-1,-8.811697006E0,-2.309724092E0
2.574291670E-1,2.919520140E-1,-8.821278572E0,-2.295351028E0
2.599381250E-1,3.350709975E-1,-8.806905746E0,-2.257023096E0
2.624471360E-1,3.542349935E-1,-8.864398003E0,-2.266604900E0
2.649560940E-1,3.638170063E-1,-8.888353348E0,-2.276186943E0
2.674651040E-1,4.165180027E-1,-8.912307739E0,-2.285768986E0
2.699741150E-1,4.356819987E-1,-8.859606743E0,-2.247441053E0
2.724830730E-1,4.644280076E-1,-8.902726173E0,-2.252232075E0
2.749920840E-1,4.692189991E-1,-8.965008736E0,-2.237859011E0
2.775010420E-1,5.219200253E-1,-8.945844650E0,-2.180366993E0
2.800100520E-1,5.746210217E-1,-8.893143654E0,-2.103710890E0
2.825190110E-1,5.889940262E-1,-8.917098999E0,-2.074965000E0
2.852388540E-1,6.177399755E-1,-8.907517433E0,-2.065382957E0
2.877478130E-1,6.800230145E-1,-8.893143654E0,-2.060591936E0
2.902568230E-1,7.039780021E-1,-8.921890259E0,-1.993517995E0
2.927658340E-1,6.943960190E-1,-8.888353348E0,-1.959980965E0
2.952747920E-1,7.231420279E-1,-8.902726173E0,-1.940816998E0
2.977838020E-1,7.806339860E-1,-8.883562088E0,-1.878533959E0
3.002927610E-1,7.997980118E-1,-8.893143654E0,-1.873743057E0
3.028017710E-1,8.812450171E-1,-8.859606743E0,-1.849787951E0
3.053107290E-1,8.477079868E-1,-8.840442657E0,-1.835415006E0
3.078197400E-1,8.429170251E-1,-8.859606743E0,-1.773131967E0
3.103286980E-1,8.285440207E-1,-8.883562088E0,-1.792296052E0
3.128377090E-1,8.093799949E-1,-8.840442657E0,-1.782714009E0
3.155316150E-1,8.429170251E-1,-8.826069832E0,-1.773131967E0
3.180406250E-1,8.572900295E-1,-8.835652351E0,-1.797086954E0
3.205495840E-1,8.524990082E-1,-8.811697006E0,-1.758759022E0
3.230585420E-1,8.237529993E-1,-8.826069832E0,-1.777922988E0
3.255675520E-1,7.758430243E-1,-8.845233917E0,-1.797086954E0
3.280765110E-1,7.758430243E-1,-8.845233917E0,-1.792296052E0
3.305855210E-1,7.470970154E-1,-8.806905746E0,-1.806668997E0
3.330945320E-1,7.231420279E-1,-8.802115440E0,-1.840206027E0
3.356034900E-1,6.943960190E-1,-8.811697006E0,-1.844997048E0
3.381125000E-1,6.943960190E-1,-8.816488266E0,-1.811460018E0
3.406214590E-1,6.369040012E-1,-8.826069832E0,-1.830623984E0
3.431304690E-1,6.273220181E-1,-8.821278572E0,-1.859369993E0
3.458232820E-1,5.602480173E-1,-8.854816437E0,-1.888116002E0
3.483322400E-1,5.937849879E-1,-8.888353348E0,-1.878533959E0
3.508412500E-1,5.889940262E-1,-8.893143654E0,-1.912070990E0
3.533502610E-1,5.315020084E-1,-8.854816437E0,-1.931234956E0
3.558592190E-1,5.075470209E-1,-8.869189262E0,-1.959980965E0
3.583681770E-1,5.219200253E-1,-8.854816437E0,-1.983935952E0
3.608771880E-1,4.979650080E-1,-8.902726173E0,-1.974354029E0
3.633861980E-1,4.644280076E-1,-8.859606743E0,-1.916862011E0
3.658951570E-1,4.548459947E-1,-8.888353348E0,-1.902488947E0
3.684041670E-1,4.931739867E-1,-8.907517433E0,-1.940816998E0
3.709131250E-1,4.452640116E-1,-8.902726173E0,-1.945608020E0
3.734221360E-1,4.548459947E-1,-8.845233917E0,-1.921653032E0
3.761142710E-1,4.835920036E-1,-8.897934914E0,-1.868952036E0
3.786232820E-1,4.548459947E-1,-8.845233917E0,-1.878533959E0
3.811322400E-1,4.596369863E-1,-8.883562088E0,-1.864161015E0
3.836412500E-1,4.404729903E-1,-8.902726173E0,-1.825832963E0
3.861502090E-1,4.500550032E-1,-8.883562088E0,-1.806668997E0
3.886592190E-1,4.165180027E-1,-8.893143654E0,-1.768340945E0
3.911681770E-1,4.213089943E-1,-8.931471825E0,-1.787505031E0
3.936771880E-1,4.117270112E-1,-8.859606743E0,-1.821041942E0
3.961861460E-1,3.973540068E-1,-8.883562088E0,-1.749176979E0
3.986951570E-1,4.117270112E-1,-8.869189262E0,-1.797086954E0
4.012041670E-1,4.117270112E-1,-8.864398003E0,-1.777922988E0
4.037131250E-1,3.638170063E-1,-8.864398003E0,-1.739595056E0
4.064052610E-1,3.829810023E-1,-8.907517433E0,-1.763550043E0
4.089142710E-1,4.069359899E-1,-8.873979568E0,-1.816251040E0
4.114232290E-1,4.021449983E-1,-8.835652351E0,-1.792296052E0
4.139322400E-1,3.877719939E-1,-8.845233917E0,-1.753968000E0
4.164411980E-1,3.781900108E-1,-8.873979568E0,-1.763550043E0
4.189502090E-1,3.254890144E-1,-8.864398003E0,-1.763550043E0
4.214591670E-1,3.638170063E-1,-8.878770828E0,-1.753968000E0
4.239681770E-1,3.542349935E-1,-8.893143654E0,-1.787505031E0
4.264771360E-1,3.781900108E-1,-8.850025177E0,-1.749176979E0
4.289861460E-1,3.494440019E-1,-8.850025177E0,-1.801877975E0
4.314951040E-1,3.781900108E-1,-8.869189262E0,-1.835415006E0
4.340041150E-1,4.069359899E-1,-8.826069832E0,-1.801877975E0
4.366964070E-1,3.733989894E-1,-8.845233917E0,-1.873743057E0
4.392054170E-1,4.165180027E-1,-8.821278572E0,-1.859369993E0
4.417143750E-1,4.308910072E-1,-8.787741661E0,-1.854578972E0
4.442233860E-1,4.213089943E-1,-8.806905746E0,-1.878533959E0
4.467323440E-1,3.973540068E-1,-8.816488266E0,-1.921653032E0
4.492413540E-1,4.165180027E-1,-8.749414444E0,-1.936025977E0
4.517503130E-1,4.404729903E-1,-8.720667839E0,-1.959980965E0
4.542593230E-1,4.165180027E-1,-8.735040665E0,-1.921653032E0
4.567682820E-1,4.308910072E-1,-8.778160095E0,-1.959980965E0
4.592772920E-1,4.165180027E-1,-8.739831924E0,-2.036637068E0
4.617862500E-1,4.548459947E-1,-8.701503754E0,-2.084547043E0
4.642952610E-1,4.165180027E-1,-8.639221191E0,-2.142039061E0
4.669871360E-1,4.308910072E-1,-8.672758102E0,-2.142039061E0
4.694960940E-1,4.021449983E-1,-8.653594017E0,-2.098920107E0
4.720051040E-1,4.165180027E-1,-8.586520195E0,-2.108501911E0
4.745141150E-1,3.781900108E-1,-8.548192024E0,-2.146830082E0
4.770230730E-1,3.542349935E-1,-8.505072594E0,-2.156411886E0
4.795320840E-1,3.829810023E-1,-8.471535683E0,-2.161202908E0
4.820410420E-1,3.590260148E-1,-8.437998772E0,-2.233067989E0
4.845500520E-1,3.590260148E-1,-8.361343384E0,-2.185158014E0
4.870590110E-1,3.542349935E-1,-8.394880295E0,-2.204322100E0
4.895680210E-1,3.254890144E-1,-8.394880295E0,-2.223485947E0
4.920769790E-1,3.446530104E-1,-8.390089035E0,-2.285768986E0
4.945859900E-1,3.781900108E-1,-8.361343384E0,-2.319305897E0
4.972785420E-1,3.590260148E-1,-8.370924950E0,-2.324096918E0
4.997875520E-1,3.877719939E-1,-8.375716209E0,-2.338469982E0
5.022965110E-1,4.021449983E-1,-8.356552124E0,-2.333678961E0
5.048055210E-1,4.213089943E-1,-8.356552124E0,-2.338469982E0
5.073144790E-1,4.117270112E-1,-8.351760864E0,-2.309724092E0
5.098234380E-1,3.781900108E-1,-8.380507469E0,-2.319305897E0
5.123324480E-1,3.973540068E-1,-8.437998772E0,-2.261814117E0
5.148414070E-1,4.644280076E-1,-8.452371597E0,-2.290560007E0
5.173504170E-1,4.883829951E-1,-8.457162857E0,-2.252232075E0
5.198594270E-1,5.075470209E-1,-8.481118202E0,-2.194740057E0
5.223683860E-1,5.267109871E-1,-8.524236679E0,-2.175575972E0
5.248773960E-1,5.506659746E-1,-8.529027939E0,-2.180366993E0
5.275688020E-1,5.698300004E-1,-8.557773590E0,-2.165993929E0
5.300808860E-1,6.273220181E-1,-8.581728935E0,-2.165993929E0
5.325930210E-1,6.512770057E-1,-8.600893021E0,-2.137248039E0
5.351051040E-1,6.991869807E-1,-8.600893021E0,-2.156411886E0
5.376172400E-1,7.231420279E-1,-8.644012451E0,-2.161202908E0
5.401293230E-1,7.614700198E-1,-8.629638672E0,-2.175575972E0
5.426414590E-1,7.662609816E-1,-8.586520195E0,-2.199531078E0
5.451535940E-1,8.045889735E-1,-8.600893021E0,-2.228276968E0
5.476656770E-1,7.854250073E-1,-8.596101761E0,-2.295351028E0
5.501778130E-1,7.950069904E-1,-8.596101761E0,-2.348052025E0
5.526898960E-1,7.950069904E-1,-8.610474586E0,-2.372006893E0
5.552020320E-1,7.518879771E-1,-8.552983284E0,-2.477408886E0
5.578605730E-1,7.662609816E-1,-8.538610458E0,-2.544482946E0
5.603726570E-1,7.566789985E-1,-8.529027939E0,-2.558856010E0
5.628847920E-1,7.854250073E-1,-8.529027939E0,-2.611557007E0
5.653968750E-1,7.423059940E-1,-8.505072594E0,-2.659466982E0
5.679090110E-1,7.518879771E-1,-8.514655113E0,-2.669049025E0
5.704210940E-1,7.662609816E-1,-8.485909462E0,-2.740914106E0
5.729332290E-1,7.327240109E-1,-8.466745377E0,-2.779242039E0
5.754453650E-1,7.279329896E-1,-8.457162857E0,-2.774451017E0
5.779574480E-1,7.710520029E-1,-8.461954117E0,-2.784033060E0
5.804695840E-1,7.423059940E-1,-8.461954117E0,-2.846316099E0
5.829816670E-1,7.662609816E-1,-8.490699768E0,-2.822360992E0
5.854938020E-1,8.045889735E-1,-8.490699768E0,-2.875061989E0
5.881524480E-1,8.189619780E-1,-8.490699768E0,-2.913389921E0
5.906645320E-1,8.333349824E-1,-8.505072594E0,-2.870270967E0
5.931766670E-1,7.806339860E-1,-8.500282288E0,-2.875061989E0
5.956887500E-1,7.806339860E-1,-8.538610458E0,-2.927762985E0
5.982008860E-1,8.141710162E-1,-8.529027939E0,-2.913389921E0
6.007129690E-1,8.381260037E-1,-8.591311455E0,-2.865479946E0
6.032251040E-1,7.806339860E-1,-8.552983284E0,-2.879853010E0
6.057372400E-1,7.902160287E-1,-8.576937675E0,-2.860688925E0
6.082493230E-1,7.758430243E-1,-8.610474586E0,-2.851106882E0
6.107614590E-1,7.039780021E-1,-8.572147369E0,-2.841525078E0
6.132735420E-1,7.279329896E-1,-8.548192024E0,-2.803196907E0
6.157856250E-1,7.375149727E-1,-8.562564850E0,-2.769659996E0
6.184423960E-1,6.416950226E-1,-8.586520195E0,-2.736123085E0
6.209544790E-1,5.410839915E-1,-8.543400764E0,-2.740914106E0
6.234666150E-1,5.410839915E-1,-8.538610458E0,-2.716959000E0
6.259786980E-1,5.362930298E-1,-8.485909462E0,-2.678631067E0
6.284908340E-1,4.883829951E-1,-8.485909462E0,-2.630721092E0
6.310029170E-1,4.500550032E-1,-8.442790031E0,-2.683422089E0
6.335150520E-1,4.117270112E-1,-8.457162857E0,-2.669049025E0
6.360271880E-1,4.260999858E-1,-8.404461861E0,-2.606765985E0
6.385392710E-1,3.781900108E-1,-8.423625946E0,-2.601974964E0
6.410514070E-1,3.733989894E-1,-8.332596779E0,-2.563647032E0
6.435634900E-1,3.925629854E-1,-8.299059868E0,-2.578020096E0
6.460756250E-1,3.829810023E-1,-8.294268608E0,-2.597183943E0
6.486989590E-1,3.877719939E-1,-8.251150131E0,-2.611557007E0
6.512110940E-1,3.973540068E-1,-8.203240395E0,-2.630721092E0
6.537231770E-1,4.069359899E-1,-8.203240395E0,-2.606765985E0
6.562352610E-1,4.165180027E-1,-8.184076309E0,-2.640302896E0
6.587473960E-1,4.069359899E-1,-8.160120964E0,-2.760077953E0
6.612595320E-1,4.644280076E-1,-8.107419968E0,-2.764868975E0
6.637716150E-1,4.548459947E-1,-8.121792793E0,-2.779242039E0
6.662837500E-1,4.452640116E-1,-8.040346146E0,-2.740914106E0
6.687958340E-1,4.788010120E-1,-7.997227192E0,-2.716959000E0
6.713079690E-1,4.931739867E-1,-7.968481064E0,-2.673840046E0
6.738201040E-1,5.506659746E-1,-8.040346146E0,-2.721750021E0
6.763321880E-1,5.889940262E-1,-8.049927711E0,-2.803196907E0
6.789903130E-1,6.129490137E-1,-8.049927711E0,-2.870270967E0
6.815024480E-1,6.225309968E-1,-8.073883057E0,-2.899017096E0
6.840145320E-1,6.225309968E-1,-8.093047142E0,-2.932554007E0
6.865266670E-1,6.033669710E-1,-8.059510231E0,-2.970881939E0
6.890387500E-1,6.033669710E-1,-8.078674316E0,-2.994837046E0
6.915508860E-1,5.889940262E-1,-8.140956879E0,-3.033164978E0
6.940629690E-1,5.410839915E-1,-8.131375313E0,-3.042747021E0
6.965751040E-1,5.315020084E-1,-8.126584053E0,-3.052329063E0
6.990871880E-1,5.698300004E-1,-8.093047142E0,-3.037955999E0
7.015993230E-1,5.698300004E-1,-8.140956879E0,-3.057120085E0
7.041114590E-1,5.410839915E-1,-8.155329704E0,-3.114612103E0
7.066235420E-1,5.554569960E-1,-8.184076309E0,-3.076283932E0
7.092825000E-1,5.937849879E-1,-8.184076309E0,-3.081074953E0
7.117946360E-1,6.416950226E-1,-8.227194786E0,-3.052329063E0
7.143067190E-1,6.416950226E-1,-8.212821960E0,-3.018791914E0
7.168188540E-1,6.608589888E-1,-8.179285049E0,-2.970881939E0
7.193309380E-1,6.464859843E-1,-8.231986046E0,-2.937345028E0
7.218430730E-1,7.183510065E-1,-8.203240395E0,-2.860688925E0
7.243551570E-1,7.279329896E-1,-8.164912224E0,-2.697794914E0
7.268672920E-1,7.758430243E-1,-8.160120964E0,-2.606765985E0
7.293793750E-1,8.620809913E-1,-8.131375313E0,-2.410335064E0
7.318915110E-1,9.579010010E-1,-8.140956879E0,-2.324096918E0
7.344036460E-1,1.063302994E0,-8.145748138E0,-2.257023096E0
7.369157290E-1,1.116003990E0,-8.208030701E0,-2.242650032E0
7.395715110E-1,1.216614962E0,-8.217613220E0,-2.170784950E0
7.420836460E-1,1.322016954E0,-8.279895782E0,-1.998309016E0
7.445957290E-1,1.365136027E0,-8.327806473E0,-1.864161015E0
7.471078650E-1,1.456164956E0,-8.337388039E0,-1.739595056E0
7.496199480E-1,1.561566949E0,-8.351760864E0,-1.686894059E0
7.521320840E-1,1.743625045E0,-8.399670601E0,-1.615028977E0
7.546441670E-1,1.882563949E0,-8.375716209E0,-1.557536960E0
7.571563020E-1,2.102950096E0,-8.457162857E0,-1.638983965E0
7.596683860E-1,2.304172039E0,-8.437998772E0,-1.653357029E0
7.621805210E-1,2.443110943E0,-8.370924950E0,-1.653357029E0
7.646926570E-1,2.500602961E0,-8.284687042E0,-1.749176979E0
7.672047400E-1,2.764107943E0,-8.342179298E0,-2.012681961E0
7.698973440E-1,3.286326885E0,-8.390089035E0,-2.156411886E0
7.724094270E-1,3.468384981E0,-8.452371597E0,-2.386379957E0
7.749215630E-1,3.276745081E0,-8.505072594E0,-2.836734056E0
7.774336460E-1,3.185715914E0,-8.586520195E0,-3.282296896E0
7.799457820E-1,3.013240099E0,-8.538610458E0,-3.378117085E0
7.824578650E-1,2.744944096E0,-8.442790031E0,-3.469146013E0
7.849700000E-1,2.495811939E0,-8.337388039E0,-3.483519077E0
7.874821360E-1,2.227515936E0,-8.260731697E0,-3.579339027E0
7.899942190E-1,1.906519055E0,-8.270314217E0,-3.790143013E0
7.925063540E-1,1.796326041E0,-8.390089035E0,-3.967410088E0
7.950184380E-1,1.432209969E0,-8.620057106E0,-4.072812080E0
7.975305730E-1,8.381260037E-1,-8.931471825E0,-4.101558208E0
8.001898440E-1,2.392510027E-1,-9.204559326E0,-4.130303860E0
8.027019270E-1,-2.781769931E-1,-9.424944878E0,-4.259661198E0
8.052140630E-1,-8.243510127E-1,-9.602211952E0,-4.417764187E0
8.077261460E-1,-1.590911031E0,-9.726778030E0,-4.427346230E0
8.102382820E-1,-2.295187950E0,-9.774687767E0,-4.235705853E0
8.127503650E-1,-2.774287939E0,-9.889672279E0,-4.187796116E0
8.152625000E-1,-3.104866982E0,-1.000944710E1,-4.288406849E0
8.177746360E-1,-3.430655003E0,-9.961537361E0,-4.379436016E0
8.202867190E-1,-3.722906113E0,-9.985491753E0,-4.518374920E0
8.227988020E-1,-4.000783920E0,-1.011005783E1,-4.662105083E0
8.253109380E-1,-4.154096127E0,-1.009568501E1,-4.824998856E0
8.278230730E-1,-4.168468952E0,-1.000944710E1,-4.968729019E0
8.304796360E-1,-4.144514084E0,-1.002381992E1,-5.074131012E0
8.329917190E-1,-4.115767956E0,-9.951954842E0,-5.179533005E0
8.355038540E-1,-4.019948006E0,-9.913626671E0,-5.246606827E0
8.380159380E-1,-3.775607109E0,-9.846552849E0,-5.419083118E0
8.405280730E-1,-3.526474953E0,-9.698032379E0,-5.366382122E0
8.430401570E-1,-3.262969971E0,-9.645331383E0,-5.347218037E0
