"Time (s)","X (rad/s)","Y (rad/s)","Z (rad/s)"
2.485999998E-3,2.706308849E-3,-3.040040135E-1,-4.011586905E-1
1.243100001E-2,-2.179405838E-1,-5.673557520E-1,-4.495427310E-1
2.237600001E-2,-4.347540736E-1,-8.040388823E-1,-5.100460052E-1
3.232000000E-2,-6.225386262E-1,-9.739024639E-1,-5.853524804E-1
4.226500001E-2,-7.754756212E-1,-1.176045299E0,-6.845819354E-1
5.221000001E-2,-9.256656766E-1,-1.388381481E0,-7.939334512E-1
6.215400000E-2,-1.049823403E0,-1.509880066E0,-8.937072158E-1
7.209900001E-2,-1.126711249E0,-1.496473432E0,-1.002129793E0
8.204400001E-2,-1.150757670E0,-1.374031067E0,-1.158094287E0
9.198800000E-2,-1.097531438E0,-1.147977591E0,-1.262925386E0
1.019330000E-1,-9.757827520E-1,-8.842921853E-1,-1.403319597E0
1.118780000E-1,-8.206192851E-1,-5.954641104E-1,-1.592644215E0
1.218220000E-1,-6.912730336E-1,-2.260318398E-1,-1.827776551E0
1.317670000E-1,-6.026238799E-1,2.013027072E-1,-2.078505516E0
1.417120000E-1,-5.273614526E-1,5.302543044E-1,-2.376757860E0
1.516560000E-1,-4.518339336E-1,6.838095188E-1,-2.667714834E0
1.616010000E-1,-3.827486038E-1,6.685623527E-1,-2.895512819E0
1.715450000E-1,-3.046924174E-1,4.753963649E-1,-3.045912266E0
1.814900000E-1,-2.410621792E-1,1.185032427E-1,-3.112227678E0
1.914350000E-1,-1.969676912E-1,-3.668909073E-1,-3.139957190E0
2.013800000E-1,-1.895841062E-1,-8.836057186E-1,-3.167547464E0
2.113240000E-1,-2.115397453E-1,-1.339549065E0,-3.199556112E0
2.212690000E-1,-2.581175268E-1,-1.700584531E0,-3.243389845E0
2.312130000E-1,-3.192730248E-1,-1.919453502E0,-3.337346792E0
2.411580000E-1,-3.318961263E-1,-1.954511404E0,-3.472762108E0
2.511030000E-1,-3.712674975E-1,-1.983039737E0,-3.779376507E0
2.610480000E-1,-4.313152134E-1,-1.920416594E0,-4.046502113E0
2.709920000E-1,-4.049861431E-1,-1.653607249E0,-4.199312687E0
2.809370000E-1,-2.968629003E-1,-1.286031723E0,-4.326072216E0
2.908810000E-1,-1.022116691E-1,-8.533841968E-1,-4.438822269E0
3.008260000E-1,1.698582619E-1,-4.906611443E-1,-4.562855721E0
3.107710000E-1,4.441038966E-1,-3.627745509E-1,-4.714550495E0
3.207150000E-1,6.661818624E-1,-3.926072419E-1,-4.835378170E0
3.306600000E-1,8.003242016E-1,-5.156911016E-1,-4.884355068E0
3.406050000E-1,8.010997176E-1,-8.064826727E-1,-4.948956490E0
3.505490000E-1,6.789461374E-1,-1.093883634E0,-5.059010029E0
3.604940000E-1,4.702226222E-1,-1.210265398E0,-5.169456482E0
3.704390000E-1,1.428535730E-1,-1.182464361E0,-5.298021317E0
3.803830000E-1,-2.832266390E-1,-8.950383067E-1,-5.406037807E0
3.903280000E-1,-7.697680593E-1,-2.651610076E-1,-5.555540562E0
4.002730000E-1,-1.236775994E0,3.093806207E-1,-5.645414352E0
4.102170000E-1,-1.641501307E0,9.744148254E-1,-5.698970318E0
4.201620000E-1,-1.956453800E0,1.877145052E0,-5.764229298E0
4.301070000E-1,-2.128388882E0,2.186602354E0,-5.788148403E0
4.400510000E-1,-1.450137258E0,8.874098659E-1,-5.065219879E0
4.499960000E-1,3.443816006E-1,-1.803953528E0,-3.408147335E0
4.599410000E-1,1.737442851E0,-2.862319946E0,-2.286598206E0
4.698850000E-1,1.975515842E0,-1.261791825E0,-2.254389524E0
4.798300000E-1,1.319516778E0,7.113232017E-1,-2.587196112E0
4.897750000E-1,1.035000563E0,7.376938462E-1,-2.879843950E0
4.997190000E-1,1.167226791E0,-4.717763066E-1,-2.931059122E0
5.096640000E-1,8.629758358E-1,-7.055523396E-1,-3.059927940E0
5.196090000E-1,5.406791568E-1,-1.650744319E0,-3.046555519E0
5.295530000E-1,2.354841083E-1,-1.736070871E0,-3.025307894E0
5.394980000E-1,1.500481665E-1,-1.617934823E0,-2.994900942E0
5.494430000E-1,2.976038158E-1,-1.520563722E0,-3.007867098E0
5.593870000E-1,4.649032056E-1,-1.412501693E0,-2.975234509E0
5.693320000E-1,6.529650092E-1,-1.435999274E0,-2.840156078E0
5.792770000E-1,9.197338223E-1,-1.501976490E0,-2.776677608E0
5.892210000E-1,1.204155684E0,-1.286319256E0,-2.797941208E0
5.991660000E-1,1.432632208E0,-8.967327476E-1,-2.871701479E0
6.091110000E-1,1.620565414E0,-5.927574039E-1,-2.962177277E0
6.190550000E-1,1.811616421E0,-3.803968430E-1,-2.998294592E0
6.290000000E-1,2.055612087E0,-2.841994762E-1,-3.015387297E0
6.389450000E-1,2.213083744E0,-1.860257685E-1,-3.061335325E0
6.488890000E-1,2.188478708E0,-5.084843040E-1,-3.092964411E0
6.588340000E-1,2.025319576E0,-3.851020336E-1,-3.125470877E0
6.687790000E-1,1.818908453E0,-1.866933554E-1,-3.328487873E0
6.787230000E-1,1.616656542E0,-3.638001084E-1,-3.556331873E0
6.886680000E-1,1.454401612E0,-5.548358560E-1,-3.881291389E0
6.986130000E-1,1.340228558E0,-3.447359800E-1,-4.014135361E0
7.085570000E-1,1.237823963E0,-1.654692739E-1,-3.991249084E0
7.185020000E-1,1.102725625E0,-7.357327640E-2,-3.832902670E0
7.284470000E-1,9.692000151E-1,-3.403865173E-2,-3.688144207E0
7.383910000E-1,8.449902534E-1,1.129062176E-1,-3.609573126E0
7.483360000E-1,6.850889921E-1,2.951002419E-1,-3.433166742E0
7.582810000E-1,5.238332152E-1,5.403100848E-1,-3.271350861E0
7.682250000E-1,4.087151587E-1,6.102495193E-1,-3.156498194E0
7.781700000E-1,3.806176484E-1,4.273147285E-1,-3.059757233E0
7.881150000E-1,3.917754889E-1,-4.222961515E-2,-2.909986258E0
7.980590000E-1,4.093902707E-1,-5.208557844E-1,-2.696140051E0
8.080040000E-1,3.602142036E-1,-9.360647202E-1,-2.431599140E0
8.179488750E-1,1.990865618E-1,-1.373491287E0,-2.126631737E0
8.278928750E-1,-5.401787162E-2,-1.718673706E0,-1.817017198E0
8.378378750E-1,-3.255043030E-1,-1.916876674E0,-1.513579965E0
8.477828750E-1,-5.853350759E-1,-2.178975105E0,-1.232553363E0
8.577268750E-1,-5.907952189E-1,-2.042225838E0,-1.090269566E0
8.676718750E-1,8.366816491E-2,-9.559449553E-1,-1.283889413E0
8.776168750E-1,9.757606387E-1,2.054593265E-1,-1.677729964E0
8.875608750E-1,1.375169873E0,6.971232891E-1,-2.175555944E0
8.975058750E-1,1.563045740E0,1.262733936E0,-2.691670656E0
9.074508750E-1,1.801110983E0,1.846300125E0,-2.961997986E0
9.173948750E-1,2.069668293E0,2.538584948E0,-2.991928339E0
9.273398750E-1,1.834628940E0,2.982038498E0,-2.909546614E0
9.372848750E-1,1.491570234E0,2.841033220E0,-2.687197685E0
9.472288750E-1,1.337888598E0,2.488744974E0,-2.403910398E0
9.571738750E-1,1.492738128E0,1.977312446E0,-2.180487394E0
9.671188750E-1,1.842373013E0,1.302594900E0,-2.042283058E0
9.770628750E-1,2.230958223E0,6.401202083E-1,-1.973384500E0
9.870078750E-1,2.576444387E0,1.760417372E-1,-1.929392457E0
9.969528750E-1,2.830789089E0,-2.788477950E-2,-1.925017953E0
1.006896875E0,3.019958258E0,-9.198176675E-3,-1.956110597E0
1.016841875E0,3.207992554E0,5.742836371E-2,-1.990178227E0
1.026786875E0,3.389608860E0,1.068800688E-1,-1.998033762E0
1.036730875E0,3.507699490E0,1.053996086E-1,-1.963434935E0
1.046675875E0,3.484333515E0,6.450942159E-2,-1.880802035E0
1.056620875E0,3.355121613E0,-6.231040508E-2,-1.744996071E0
1.066564875E0,3.213444471E0,-4.184599817E-1,-1.632963181E0
1.076509875E0,3.016780138E0,-7.263489962E-1,-1.607162356E0
1.086454875E0,2.755604744E0,-8.009084463E-1,-1.590654492E0
1.096398875E0,2.532566547E0,-7.032071352E-1,-1.580449581E0
1.106343875E0,2.420360088E0,-5.566490889E-1,-1.611934781E0
1.116288875E0,2.436770201E0,-4.260109365E-1,-1.657648444E0
1.126232875E0,2.549788475E0,-3.589128554E-1,-1.661602497E0
1.136177875E0,2.729579210E0,-4.247731864E-1,-1.572939873E0
1.146122875E0,2.925697327E0,-7.198847532E-1,-1.334778905E0
1.156066875E0,3.035157919E0,-1.206566811E0,-9.968796372E-1
1.166011875E0,2.984821320E0,-1.649699330E0,-6.967752576E-1
1.175956875E0,2.766080856E0,-1.906761765E0,-5.151299238E-1
1.185900875E0,2.466586590E0,-1.854367495E0,-4.378167391E-1
1.195845875E0,2.183575630E0,-1.483106852E0,-4.100374579E-1
1.205790875E0,1.907700181E0,-8.838534951E-1,-3.920789659E-1
1.215734875E0,1.653107047E0,-2.423475683E-1,-3.589012921E-1
1.225679875E0,1.476321101E0,3.226231337E-1,-2.977692187E-1
1.235624875E0,1.423597574E0,7.657224536E-1,-2.248913944E-1
1.245568875E0,1.462802529E0,9.854103923E-1,-1.475457400E-1
1.255513875E0,1.534603477E0,8.927164674E-1,-3.303255886E-2
1.265458875E0,1.571975350E0,5.137952566E-1,1.382819414E-1
1.275402875E0,1.498036742E0,-2.937951311E-2,3.169963956E-1
1.285347875E0,1.324932814E0,-5.573027134E-1,4.258352816E-1
1.295292875E0,1.141020417E0,-8.808655739E-1,4.176195860E-1
1.305236875E0,1.002944589E0,-9.504795074E-1,2.886488140E-1
1.315181875E0,9.011159539E-1,-8.801377416E-1,1.122547910E-1
1.325126875E0,8.329728842E-1,-7.480859160E-1,-6.003442407E-2
1.335070875E0,7.614034414E-1,-5.488222837E-1,-1.628808081E-1
1.345015875E0,6.957250834E-1,-2.757470310E-1,-1.452754438E-1
1.354960875E0,6.484485269E-1,7.022063434E-2,-2.795036882E-2
1.364904875E0,6.044446230E-1,4.567640722E-1,8.096279204E-2
1.374849875E0,5.182796121E-1,8.216954470E-1,1.219325960E-1
1.384794875E0,3.868609071E-1,1.042952538E0,8.283527195E-2
1.394739875E0,2.661766410E-1,1.053264618E0,-1.411331352E-2
1.404683875E0,2.196328193E-1,8.795692325E-1,-1.154188886E-1
1.414628875E0,2.877326608E-1,5.637474656E-1,-1.574407518E-1
1.424573875E0,3.938082457E-1,1.428663135E-1,-1.243224740E-1
1.434517875E0,4.544432461E-1,-3.317314088E-1,-4.514482990E-2
1.444462875E0,4.803717732E-1,-7.931326032E-1,1.857129857E-2
1.454407875E0,4.676610827E-1,-1.130738616E0,2.499073744E-2
1.464351875E0,4.118579924E-1,-1.242988825E0,-3.276690841E-4
1.474296875E0,3.375435770E-1,-1.119938493E0,-5.951292813E-3
1.484241875E0,2.856233716E-1,-8.626811504E-1,3.227438778E-2
1.494185875E0,2.422413230E-1,-5.890996456E-1,8.950986713E-2
1.504130875E0,1.823857129E-1,-3.354956210E-1,1.123565957E-1
1.514075875E0,1.696415804E-2,1.679553092E-1,1.043638773E-2
1.524019875E0,-1.477313191E-1,9.237497449E-1,-1.596698314E-1
1.533964875E0,-2.326863408E-1,1.551552773E0,-2.648114860E-1
1.543909875E0,-3.389238417E-1,1.719733477E0,-2.616777420E-1
1.553853875E0,-5.297907591E-1,1.528931499E0,-1.949123293E-1
1.563798875E0,-7.461052537E-1,1.240442276E0,-7.588687539E-2
1.573743875E0,-8.703343868E-1,9.934665561E-1,6.136141717E-2
1.583687875E0,-8.162311912E-1,8.560348749E-1,1.493290812E-1
1.593632875E0,-6.129425168E-1,7.625239491E-1,1.952187866E-1
1.603577875E0,-3.582108915E-1,5.749753714E-1,2.156921029E-1
1.613521875E0,-2.266223580E-1,3.502632976E-1,2.594484985E-1
1.623466875E0,-2.360257208E-1,5.907645822E-2,3.435639143E-1
1.633411875E0,-2.631576955E-1,-3.873144090E-1,4.803161919E-1
1.643356875E0,-3.137111664E-1,-7.970486879E-1,5.979317427E-1
1.653300875E0,-3.577723205E-1,-1.098373890E0,6.643139124E-1
1.663245875E0,-3.575720489E-1,-1.260138392E0,6.713369489E-1
1.673190875E0,-3.900765479E-1,-1.178795934E0,6.000168920E-1
1.683134875E0,-4.550986886E-1,-8.168721795E-1,5.383961201E-1
1.693079875E0,-5.110558271E-1,-3.421632946E-1,4.789608717E-1
1.703024875E0,-5.605879426E-1,1.595490724E-1,4.959025681E-1
1.712968875E0,-6.421931982E-1,6.339074373E-1,5.025557280E-1
1.722913875E0,-5.427057743E-1,6.153063178E-1,6.426925659E-1
1.732858875E0,-3.141791224E-1,-2.903702855E-1,8.922545910E-1
1.742802875E0,-3.071688712E-1,-1.070888162E0,8.599627018E-1
1.752747875E0,-1.999222636E-1,-1.460616112E0,9.158082008E-1
1.762692875E0,-1.466506068E-2,-1.752544641E0,8.929476142E-1
1.772636875E0,9.409514070E-2,-1.708816290E0,8.538023233E-1
1.782581875E0,6.567735225E-2,-1.261787415E0,8.602522612E-1
1.792526875E0,-2.333987504E-2,-4.802506566E-1,7.672272325E-1
1.802470875E0,-7.781776041E-2,6.091193557E-1,6.076945662E-1
1.812415875E0,-1.447079927E-1,1.395148277E0,4.799034894E-1
1.822360125E0,-2.669036686E-1,1.474461675E0,4.843408465E-1
1.832305125E0,-1.268705279E-1,1.710181952E0,3.761788011E-1
1.842249125E0,4.868584871E-2,1.357496619E0,2.891166210E-1
1.852194125E0,1.620907038E-1,7.833984494E-1,2.688350379E-1
1.862139125E0,3.627755940E-1,5.774053931E-1,2.289499342E-1
1.872083125E0,5.205129981E-1,4.169049561E-1,2.166342437E-1
1.882028125E0,5.065436363E-1,2.048978955E-1,2.818204463E-1
1.891973125E0,4.273781180E-1,1.906136423E-2,3.890756369E-1
1.901917125E0,3.456297219E-1,-9.345213324E-2,4.663504660E-1
1.911862125E0,1.505139172E-1,-2.591337860E-1,5.547296405E-1
1.921807125E0,-6.731640548E-2,-2.885566652E-1,5.579416752E-1
1.931751125E0,-1.701420397E-1,-1.724609584E-1,4.279085100E-1
1.941696125E0,-1.949874759E-1,-4.067203775E-2,2.665630281E-1
1.951641125E0,-1.379648298E-1,2.146338969E-1,1.407628655E-1
1.961586125E0,-4.235121980E-2,3.951978385E-1,6.639142334E-2
1.971530125E0,4.351363704E-2,4.971302450E-1,6.207978725E-2
1.981475125E0,1.096516475E-1,5.918628573E-1,8.702002466E-2
1.991420125E0,6.566206366E-2,6.164950728E-1,1.434262842E-1
2.001364125E0,-5.792884529E-2,7.062651515E-1,1.931685507E-1
2.011309125E0,-2.306305319E-1,8.320775032E-1,2.100273967E-1
2.021254125E0,-4.109041393E-1,1.023453236E0,1.414688379E-1
2.031198125E0,-4.848542511E-1,1.331362247E0,4.462643340E-2
2.041143125E0,-5.544370413E-1,1.482645273E0,-4.368807189E-3
2.051088125E0,-7.312099934E-1,1.464272857E0,5.615537614E-2
2.061032125E0,-8.288294673E-1,1.524437904E0,1.114335433E-1
2.070977125E0,-6.467165947E-1,1.796959162E0,1.330253482E-2
2.080922125E0,-3.896078467E-1,2.082596302E0,-1.906870902E-1
2.090867125E0,-2.775391638E-1,2.227249384E0,-3.095907569E-1
2.100811125E0,-2.568240464E-1,2.290897846E0,-3.148704767E-1
2.110756125E0,-2.670830786E-1,2.311532736E0,-2.776481211E-1
2.120701125E0,-3.270723820E-1,2.311712503E0,-2.575862706E-1
2.130645125E0,-3.935585916E-1,2.252761841E0,-2.877299488E-1
2.140590125E0,-3.992529809E-1,2.030727386E0,-3.319482803E-1
2.150535125E0,-3.332971931E-1,1.686273932E0,-3.588601053E-1
2.160479125E0,-2.433454394E-1,1.336993337E0,-3.202442527E-1
2.170424125E0,-1.819157898E-1,1.051841140E0,-2.445067912E-1
2.180369125E0,-1.703267843E-1,8.774560094E-1,-2.011641115E-1
2.190313125E0,-1.726603508E-1,8.569713831E-1,-1.838435531E-1
2.200258125E0,-1.960253268E-1,8.858146667E-1,-1.901627034E-1
2.210203125E0,-2.276125252E-1,9.350611567E-1,-1.962011606E-1
2.220148125E0,-2.552183270E-1,1.019718289E0,-2.039280534E-1
2.230092125E0,-2.574585378E-1,1.087903142E0,-2.289332449E-1
2.240037125E0,-2.336847782E-1,1.142945409E0,-2.680130005E-1
2.249982125E0,-2.094461471E-1,1.216620326E0,-2.934010327E-1
2.259926125E0,-2.058082670E-1,1.300417304E0,-2.609775662E-1
2.269871125E0,-2.429729551E-1,1.305515051E0,-2.146392763E-1
2.279816125E0,-3.008002937E-1,1.231990218E0,-1.841633916E-1
2.289760125E0,-3.465169072E-1,1.136138082E0,-1.706648618E-1
2.299705125E0,-3.325840533E-1,1.103705883E0,-1.805553138E-1
2.309650125E0,-2.933681309E-1,1.138966918E0,-2.120283544E-1
2.319595125E0,-2.475854754E-1,1.262978315E0,-2.543140352E-1
2.329539125E0,-2.157274336E-1,1.399554253E0,-2.924841940E-1
2.339484125E0,-2.021642178E-1,1.386575818E0,-3.261353672E-1
2.349429125E0,-2.202664614E-1,1.329487562E0,-3.280458748E-1
2.359373125E0,-2.408207506E-1,1.282392502E0,-3.248303533E-1
2.369318125E0,-2.180102021E-1,1.216487408E0,-3.158488274E-1
2.379263125E0,-1.187105253E-1,1.165610552E0,-3.005047739E-1
2.389207125E0,-3.823776916E-2,1.113929033E0,-2.715598941E-1
2.399152125E0,-1.528222580E-3,1.105712891E0,-2.337046564E-1
2.409097125E0,-1.553523913E-2,1.238726020E0,-2.081331164E-1
2.419042125E0,-7.767610252E-2,1.417025089E0,-2.300943434E-1
2.428986125E0,-1.233918071E-1,1.581806183E0,-2.772370875E-1
2.438931125E0,-1.620079130E-1,1.572487831E0,-2.893041372E-1
2.448876125E0,-1.834683120E-1,1.315475583E0,-2.547365725E-1
2.458820125E0,-1.048051938E-1,9.168035984E-1,-2.095379382E-1
2.468765125E0,-1.041136682E-2,4.201652408E-1,-1.222273856E-1
2.478710125E0,3.424984589E-2,-1.196750700E-1,-3.960575163E-2
2.488654125E0,8.471538126E-2,-5.283438563E-1,3.078004718E-2
2.498599125E0,1.513404846E-1,-5.759451985E-1,7.369662076E-2
2.508544125E0,2.411044538E-1,-1.242828965E-1,8.894173801E-2
2.518489125E0,3.318588734E-1,7.068066001E-1,9.119397402E-2
2.528433125E0,3.808902502E-1,1.545309663E0,1.093242317E-1
2.538378125E0,4.071434438E-1,1.975965381E0,1.719649732E-1
2.548323125E0,4.645923674E-1,1.854599357E0,2.985451519E-1
2.558267125E0,5.181159973E-1,1.316425323E0,4.664417207E-1
2.568212125E0,5.012843609E-1,6.627807021E-1,5.488702059E-1
2.578157125E0,3.884230554E-1,2.152519524E-1,5.372902155E-1
2.588101125E0,1.918419600E-1,1.816578060E-1,4.848820567E-1
2.598046125E0,1.746242493E-2,4.720379710E-1,4.586368799E-1
2.607991125E0,-3.512554243E-2,6.919653416E-1,5.390906930E-1
2.617936125E0,1.938936487E-2,5.757175684E-1,7.095740438E-1
2.627880125E0,1.705389023E-1,2.120855004E-1,9.445877075E-1
2.637825125E0,3.546868861E-1,-2.969396412E-1,1.147952557E0
2.647770125E0,4.593927562E-1,-7.753158808E-1,1.302706361E0
2.657714125E0,4.905152619E-1,-1.183645368E0,1.392807722E0
2.667659125E0,4.434314072E-1,-1.577967048E0,1.430704594E0
2.677604125E0,4.113877118E-1,-1.854867578E0,1.497391701E0
2.687549125E0,4.395507276E-1,-1.880073071E0,1.599570513E0
2.697493125E0,4.877699018E-1,-1.708533525E0,1.633463264E0
2.707438125E0,4.835660756E-1,-1.342213392E0,1.567174554E0
2.717383125E0,4.283012152E-1,-8.238932490E-1,1.383104563E0
2.727327125E0,3.968641162E-1,-3.489855230E-1,1.237801909E0
2.737272125E0,3.707004189E-1,-1.097806618E-1,1.201272130E0
2.747217125E0,3.339216113E-1,-7.612052560E-2,1.194270611E0
2.757161125E0,2.990397811E-1,-8.016347140E-2,1.243809700E0
2.767106125E0,2.544411123E-1,-1.669363678E-1,1.349590659E0
2.777051125E0,2.064746469E-1,-2.969718575E-1,1.450458646E0
2.786996125E0,1.662125140E-1,-4.033182859E-1,1.564533234E0
2.796940125E0,1.341933310E-1,-3.790371716E-1,1.633618593E0
2.806885125E0,1.772918701E-1,-5.228000879E-1,1.634765267E0
2.816831083E0,2.283691615E-1,-7.243608832E-1,1.641594768E0
2.826775083E0,2.858326733E-1,-8.505413532E-1,1.637567759E0
2.836720083E0,3.461854756E-1,-8.499962091E-1,1.651084423E0
2.846665083E0,4.027237594E-1,-7.609109282E-1,1.613380671E0
2.856610083E0,4.860820174E-1,-6.861929893E-1,1.562849522E0
2.866554083E0,5.976268649E-1,-5.600326657E-1,1.568543077E0
2.876499083E0,7.045890093E-1,-4.783356786E-1,1.591102362E0
2.886444083E0,8.641510606E-1,-4.837944508E-1,1.585124493E0
2.896388083E0,1.116802454E0,-6.577569246E-1,1.707000256E0
2.906333083E0,1.367817998E0,-8.711150289E-1,1.783510089E0
2.916278083E0,1.620265126E0,-9.647848010E-1,1.738838792E0
2.926223083E0,1.890933871E0,-9.884288907E-1,1.664759040E0
2.936167083E0,1.971744537E0,-1.098573565E0,1.649750471E0
2.946112083E0,1.852500558E0,-9.768631458E-1,1.384875298E0
2.956057083E0,1.733843684E0,-2.720179260E-1,1.113570333E0
2.966001083E0,1.455676198E0,2.569394112E-1,8.039510846E-1
2.975946083E0,1.167995453E0,3.329529762E-1,6.518576741E-1
2.985891083E0,8.880898952E-1,5.812129378E-2,6.872337461E-1
2.995835083E0,6.292359233E-1,-3.115353286E-1,8.500096202E-1
3.005780083E0,4.093489945E-1,-6.091026068E-1,9.490727782E-1
3.015725083E0,1.464973986E-1,-6.664042473E-1,7.778914571E-1
3.025670083E0,-2.017683238E-1,-3.913095593E-1,5.183994770E-1
3.035614083E0,-4.695688784E-1,3.593526408E-2,3.639182746E-1
3.045559083E0,-4.768260717E-1,3.864036202E-1,2.162705511E-1
3.055504083E0,-2.546137571E-1,4.897121489E-1,-4.520681687E-3
3.065448083E0,3.766207956E-3,5.439033508E-1,-2.428658903E-1
3.075393083E0,1.823750883E-1,6.110392809E-1,-4.060098231E-1
3.085338083E0,2.245751023E-1,6.291290522E-1,-5.831332803E-1
3.095283083E0,1.395257264E-1,6.267455220E-1,-7.778729200E-1
3.105227083E0,2.292936295E-2,5.604299307E-1,-9.907352924E-1
3.115172083E0,-8.578407019E-2,4.336748719E-1,-1.138694882E0
3.125117083E0,-1.659155339E-1,7.105895132E-2,-1.203330755E0
3.135061083E0,-2.036581188E-1,-6.341120005E-1,-1.186924338E0
3.145006083E0,-2.560535073E-1,-8.860884309E-1,-1.387420416E0
3.154951083E0,-3.439990580E-1,-9.929115772E-1,-1.564477563E0
3.164896083E0,-4.796216488E-1,-4.258498251E-1,-1.461197376E0
3.174840083E0,-6.285551786E-1,6.103845239E-1,-6.560974717E-1
3.184785083E0,-4.052180350E-1,1.687319279E-1,3.557451963E-1
3.194730083E0,-1.744058430E-1,-2.314590104E-2,1.115725398E0
3.204674083E0,8.765769750E-2,-1.379946768E-1,1.559981585E0
3.214619083E0,4.482379854E-1,-2.996986210E-1,1.840938449E0
3.224564083E0,8.126989603E-1,-2.738268375E-1,1.823128343E0
3.234509083E0,1.106562853E0,-2.279836982E-1,1.195091605E0
3.244453083E0,1.009161234E0,-1.954859346E-1,1.201747283E-1
3.254398083E0,6.537189484E-1,8.614069223E-2,-4.047548175E-1
3.264343083E0,2.642315924E-1,3.424465656E-1,-4.318104982E-1
3.274287083E0,-1.414413452E-1,4.543677866E-1,-3.043976724E-1
3.284232083E0,-4.440626204E-1,4.007139504E-1,-1.447823048E-1
3.294177083E0,-5.847424865E-1,3.574181497E-1,-1.840651780E-2
3.304122083E0,-6.167468429E-1,3.065313697E-1,1.390968859E-1
