"Time (s)","X (rad/s)","Y (rad/s)","Z (rad/s)"
2.487000005E-3,1.855587959E-1,-1.003147125E0,-1.859290957E0
1.243300000E-2,1.388677210E-1,-9.048506021E-1,-1.972663045E0
2.237800001E-2,1.126244292E-1,-7.962862849E-1,-2.095676184E0
3.232300001E-2,1.557575315E-1,-6.833543777E-1,-2.244044065E0
4.226800000E-2,2.895146608E-1,-5.462449789E-1,-2.410837650E0
5.221300000E-2,4.759689569E-1,-4.512004852E-1,-2.613349199E0
6.215800000E-2,6.724246740E-1,-4.052999020E-1,-2.807759285E0
7.210300000E-2,8.128928542E-1,-3.775407076E-1,-2.987992287E0
8.204800000E-2,9.254164696E-1,-3.335912228E-1,-3.188391685E0
9.199300001E-2,1.006337404E0,-3.067628145E-1,-3.383237362E0
1.019380000E-1,1.049535036E0,-2.463026643E-1,-3.549188137E0
1.118830000E-1,1.080210924E0,-2.659264207E-1,-3.674018383E0
1.218280000E-1,1.123213172E0,-3.821286559E-1,-3.850049734E0
1.317730000E-1,1.160231948E0,-4.965574741E-1,-4.061571598E0
1.417180000E-1,1.180194020E0,-6.165018082E-1,-4.256384850E0
1.516630000E-1,1.174605608E0,-7.572274804E-1,-4.469801903E0
1.616090000E-1,1.142253637E0,-8.001804948E-1,-4.704479218E0
1.715540000E-1,1.118002653E0,-6.974661350E-1,-4.881913185E0
1.814990000E-1,1.114494085E0,-5.554161668E-1,-4.924695015E0
1.914440000E-1,1.114408851E0,-6.079406142E-1,-4.821169853E0
2.013890000E-1,1.046793103E0,-7.209149599E-1,-4.634641171E0
2.113340000E-1,9.905017614E-1,-7.629372478E-1,-4.346679688E0
2.212790000E-1,8.847960830E-1,-9.347756505E-1,-4.104947090E0
2.312240000E-1,7.079531550E-1,-1.163159847E0,-3.951195955E0
2.411690000E-1,4.967029095E-1,-1.345471740E0,-3.906851530E0
2.511140000E-1,2.903156281E-1,-1.454253554E0,-3.947925806E0
2.610590000E-1,1.544555724E-1,-1.487937093E0,-4.001139641E0
2.710040000E-1,1.037007868E-1,-1.487722993E0,-4.022388935E0
2.809490000E-1,1.551858932E-1,-1.442537546E0,-4.016144753E0
2.908940000E-1,2.601884902E-1,-1.322128654E0,-3.991962910E0
3.008390000E-1,3.538464606E-1,-1.139223218E0,-3.948481321E0
3.107840000E-1,4.095954895E-1,-9.874557257E-1,-3.899806976E0
3.207300000E-1,3.725120425E-1,-8.143981099E-1,-3.855157614E0
3.306750000E-1,2.382533103E-1,-6.936061978E-1,-3.811393738E0
3.406200000E-1,1.304012164E-2,-6.434521079E-1,-3.766526937E0
3.505650000E-1,-2.313752174E-1,-6.262675524E-1,-3.714488983E0
3.605100000E-1,-4.049887061E-1,-5.156826973E-1,-3.643515110E0
3.704550000E-1,-4.898817539E-1,-3.105886579E-1,-3.553875208E0
3.804000000E-1,-4.864928424E-1,-2.846767567E-2,-3.447825670E0
3.903450000E-1,1.276966929E0,1.669250011E0,-2.966200590E0
4.002900000E-1,1.085389376E0,9.602353573E-1,-3.155822992E0
4.102350000E-1,1.091443539E0,1.274757862E0,-2.761101246E0
4.201800000E-1,8.253476024E-1,3.681535721E-1,-2.640784025E0
4.301250000E-1,5.988175273E-1,-2.134557664E-1,-2.352644920E0
4.400700000E-1,6.446284056E-1,-1.615073383E-1,-1.849764466E0
4.500150000E-1,8.070381284E-1,-3.837819695E-1,-1.474529266E0
4.599600000E-1,1.021987319E0,-4.833233356E-1,-1.215490103E0
4.699050000E-1,1.187619209E0,-6.717901826E-1,-1.053986192E0
4.798510000E-1,1.280013561E0,-1.031077862E0,-1.002342463E0
4.897960000E-1,1.197288275E0,-1.655056715E0,-1.110642195E0
4.997410000E-1,9.636487961E-1,-2.388576031E0,-1.244676709E0
5.096860000E-1,6.605355144E-1,-2.851518869E0,-1.366705418E0
5.196308333E-1,3.938162923E-1,-2.958139896E0,-1.448868632E0
5.295758333E-1,3.661942482E-1,-2.732728481E0,-1.310740352E0
5.395208333E-1,4.231230915E-1,-2.338439941E0,-1.198071599E0
5.494658333E-1,5.288801789E-1,-1.944538951E0,-1.132465243E0
5.594108333E-1,6.251875162E-1,-1.596910834E0,-1.087297082E0
5.693558333E-1,5.865786076E-1,-1.347797990E0,-1.088064075E0
5.793008333E-1,4.568074346E-1,-1.204883099E0,-1.156973720E0
5.892458333E-1,2.345794290E-1,-1.128582716E0,-1.280316710E0
5.991908333E-1,-1.102754250E-1,-9.589192867E-1,-1.356386065E0
6.091358333E-1,-4.490161836E-1,-9.306836128E-1,-1.372750640E0
6.190808333E-1,-6.983553767E-1,-1.074923635E0,-1.415433288E0
6.290258333E-1,-8.350378871E-1,-9.459848404E-1,-1.412954688E0
6.389708333E-1,-7.945771217E-1,-6.755252481E-1,-1.435049415E0
6.489168333E-1,-6.880248785E-1,-3.719128668E-1,-1.518041730E0
6.588618333E-1,-5.505727530E-1,-1.203364432E-1,-1.551052690E0
6.688068333E-1,-3.543145657E-1,-4.483157024E-2,-1.590638161E0
6.787518333E-1,-1.106195003E-1,-2.417944930E-2,-1.592441797E0
6.886968333E-1,2.440911829E-1,1.012819074E-2,-1.540292382E0
6.986418333E-1,7.483878732E-1,1.559522301E-1,-1.478231430E0
7.085868333E-1,1.311787367E0,3.802178502E-1,-1.331939936E0
7.185318333E-1,1.773501158E0,5.901590586E-1,-1.115294218E0
7.284768333E-1,2.193292856E0,5.546647310E-1,-1.229292393E0
7.384218333E-1,2.490613461E0,3.873504400E-1,-1.180140615E0
7.483668333E-1,2.608474016E0,4.917052761E-2,-1.082331777E0
7.583118333E-1,2.464360714E0,-3.547151685E-1,-9.803737998E-1
7.682568333E-1,2.405791283E0,-4.363679290E-1,-8.588087559E-1
7.782018333E-1,2.360280514E0,-3.672548532E-1,-8.143160343E-1
7.881468333E-1,2.192039490E0,-2.676670253E-1,-9.044792056E-1
7.980918333E-1,1.932905316E0,-1.625146866E-1,-1.051758409E0
8.080378333E-1,1.684438348E0,-1.468164176E-1,-1.182115316E0
8.179828333E-1,1.516691089E0,-2.575053573E-1,-1.310862899E0
8.279278333E-1,1.466369033E0,-4.950079024E-1,-1.440630436E0
8.378728333E-1,1.548531771E0,-8.795254230E-1,-1.543095350E0
8.478178333E-1,1.681127667E0,-1.312342286E0,-1.596111178E0
8.577628333E-1,1.954679489E0,-1.513926983E0,-1.612626195E0
8.677078333E-1,2.331868172E0,-1.563951850E0,-1.681794047E0
8.776528333E-1,2.713716030E0,-1.513962626E0,-1.793670654E0
8.875978333E-1,3.059547424E0,-1.407754064E0,-1.902177453E0
8.975428333E-1,3.345618010E0,-1.255991220E0,-2.000233650E0
9.074878333E-1,3.586006165E0,-1.031372786E0,-2.131972551E0
9.174328333E-1,3.789922237E0,-8.708724380E-1,-2.287649632E0
9.273778333E-1,3.901008368E0,-7.835183740E-1,-2.373162031E0
9.373228333E-1,3.767893076E0,-7.136281729E-1,-2.247105360E0
9.472678333E-1,3.448353529E0,-8.615933657E-1,-2.045046568E0
9.572128333E-1,3.130286455E0,-1.051993608E0,-1.820859790E0
9.671578333E-1,2.913131237E0,-1.041725755E0,-1.678705215E0
9.771038333E-1,2.724256754E0,-7.457702756E-1,-1.718043804E0
9.870488333E-1,2.577818632E0,-4.602901042E-1,-1.903233886E0
9.969938333E-1,2.460067511E0,-2.799677476E-2,-1.917124987E0
1.006938833E0,2.319981337E0,4.298661053E-1,-1.702840090E0
1.016883833E0,2.174699783E0,6.336745024E-1,-1.515795469E0
1.026828833E0,2.149093866E0,6.244922280E-1,-1.459366322E0
1.036773833E0,2.289559841E0,6.694269776E-1,-1.476240158E0
1.046718833E0,2.525130510E0,8.819770813E-1,-1.477766395E0
1.056663833E0,2.702585459E0,9.665690660E-1,-1.225746512E0
1.066608833E0,2.710331678E0,7.272992134E-1,-6.506812572E-1
1.076553833E0,2.509832859E0,1.754297167E-1,-5.124861747E-2
1.086498833E0,2.237468481E0,-4.197425544E-1,3.830847442E-1
1.096443833E0,2.024195433E0,-8.334101439E-1,5.599892139E-1
1.106388833E0,1.869712710E0,-1.036477804E0,4.809215665E-1
1.116333833E0,1.742058516E0,-1.073188305E0,2.678841949E-1
1.126278833E0,1.614306927E0,-9.662887454E-1,3.633750975E-2
1.136224833E0,1.487995028E0,-7.607784867E-1,-1.310470104E-1
1.146169833E0,1.347217679E0,-5.691800117E-1,-1.709584743E-1
1.156114833E0,1.168902993E0,-5.824797750E-1,-4.299655557E-2
1.166059833E0,9.301905036E-1,-7.438880801E-1,1.106798276E-1
1.176004833E0,6.820572019E-1,-7.942609787E-1,1.653890759E-1
1.185949833E0,4.623442888E-1,-4.486577809E-1,1.399508268E-1
1.195894833E0,2.576082051E-1,3.025171161E-1,4.973045737E-2
1.205839833E0,1.954264939E-2,1.094305277E0,-6.372074038E-2
1.215784833E0,-2.220699489E-1,1.712534070E0,-1.537148952E-1
1.225729833E0,-4.308753312E-1,1.976758838E0,-2.089792192E-1
1.235674833E0,-5.843352675E-1,1.970753789E0,-2.610595822E-1
1.245619833E0,-6.492391825E-1,1.855943322E0,-3.047513962E-1
1.255564833E0,-6.815907955E-1,1.893231630E0,-1.348247081E-1
1.265509833E0,-6.149523854E-1,2.075956821E0,-1.489024460E-1
1.275454833E0,-5.964593887E-1,1.969889641E0,-1.580842584E-1
1.285400833E0,-6.572229266E-1,1.818361878E0,-1.630181447E-2
1.295345833E0,-7.185446024E-1,1.579023480E0,3.768246621E-2
1.305290833E0,-7.411497831E-1,1.259873986E0,6.759721786E-2
1.315235833E0,-6.553059816E-1,8.602405787E-1,1.800742298E-1
1.325180833E0,-5.010042787E-1,3.589140773E-1,2.469033301E-1
1.335125833E0,-3.619668484E-1,-2.213287503E-1,1.487713456E-1
1.345070833E0,-2.383114845E-1,-7.142170072E-1,2.571785077E-2
1.355015833E0,-1.489079148E-1,-9.894161224E-1,-4.923924059E-2
1.364960833E0,-3.487268835E-2,-1.100553513E0,-8.672163635E-2
1.374905833E0,1.437349617E-2,-1.081480980E0,-2.890624665E-2
1.384850833E0,-1.656266302E-1,-6.458946466E-1,9.026940912E-2
1.394795833E0,-2.827776074E-1,-1.024168655E-1,1.944186985E-1
1.404740833E0,-3.079812229E-1,6.970611401E-3,2.613769472E-1
1.414685833E0,-1.647205949E-1,-8.218210936E-1,4.115947783E-1
1.424630833E0,-1.245878190E-1,-1.890419602E0,5.939674973E-1
1.434576833E0,-3.820795417E-1,-2.054570436E0,6.856502295E-1
1.444521833E0,-5.381751657E-1,-1.730207086E0,6.690813303E-1
1.454466833E0,-5.208278894E-1,-1.209602237E0,6.557005644E-1
1.464411833E0,-5.578154922E-1,-6.764549613E-1,6.079673767E-1
1.474356833E0,-6.695810556E-1,-2.258521020E-1,5.448049903E-1
1.484301833E0,-7.716637850E-1,2.151609808E-1,5.642144084E-1
1.494246833E0,-8.712054491E-1,5.896075368E-1,6.686285138E-1
1.504191833E0,-9.572130442E-1,7.952117920E-1,7.850638032E-1
1.514136833E0,-9.987133741E-1,8.112664223E-1,8.526958227E-1
1.524081750E0,-9.748309255E-1,6.585895419E-1,8.528590798E-1
1.534026750E0,-8.998039365E-1,3.881818652E-1,8.162895441E-1
1.543971750E0,-8.263691068E-1,1.051477715E-1,7.919064164E-1
1.553916750E0,-7.754880786E-1,-1.252911985E-1,7.857460976E-1
1.563861750E0,-7.400445938E-1,-2.525300980E-1,8.222159743E-1
1.573806750E0,-6.944665909E-1,-2.433976680E-1,8.714735508E-1
1.583752750E0,-6.391764879E-1,-1.362384558E-1,8.656961322E-1
1.593697750E0,-5.837211609E-1,-2.854990307E-3,8.519671559E-1
1.603642750E0,-3.079191148E-1,3.902669847E-1,6.155990958E-1
1.613587750E0,7.711764425E-2,7.639638782E-1,3.110660613E-1
1.623532750E0,2.537834942E-1,8.971711993E-1,1.270019561E-1
1.633477750E0,3.341681361E-1,8.040915132E-1,3.303489834E-2
1.643422750E0,3.267253935E-1,5.307211876E-1,9.020630270E-2
1.653367750E0,3.300651610E-1,1.641880274E-1,1.988924742E-1
1.663312750E0,2.699922621E-1,-1.809669733E-1,3.323165774E-1
1.673257750E0,1.876377016E-1,-3.029444218E-1,3.987257183E-1
1.683202750E0,1.413948387E-1,-2.343155742E-1,3.812146187E-1
1.693147750E0,1.616518945E-1,6.575698406E-2,2.733554840E-1
1.703092750E0,1.219412312E-1,4.557502866E-1,1.513169110E-1
1.713037750E0,4.442038760E-2,8.717948794E-1,7.264992595E-2
1.722983750E0,-4.047586396E-2,1.237327814E0,2.762572095E-2
1.732928750E0,-1.052310094E-1,1.516408801E0,1.007028669E-2
1.742873750E0,-1.607145071E-1,1.747458577E0,1.431589760E-2
1.752818750E0,-2.276345193E-1,1.960041165E0,1.508461311E-2
1.762763750E0,-2.720872164E-1,2.157477856E0,-3.096304089E-2
1.772708750E0,-2.914502025E-1,2.340734959E0,-1.046711057E-1
1.782653750E0,-3.041252792E-1,2.469911575E0,-1.353075802E-1
1.792598750E0,-2.868211269E-1,2.465643406E0,-1.604628712E-1
1.802543750E0,-2.381422520E-1,2.341599703E0,-1.799838394E-1
1.812488750E0,-1.721444130E-1,2.117292166E0,-1.879342645E-1
1.822433750E0,-1.044535190E-1,1.832694292E0,-1.752440333E-1
1.832378750E0,-4.667985439E-2,1.557753086E0,-1.418930590E-1
1.842323750E0,9.454569081E-4,1.341603994E0,-8.127126098E-2
1.852268750E0,5.237771571E-2,1.199755907E0,-5.479995534E-2
1.862214750E0,1.068297699E-1,1.103665829E0,-5.730439350E-2
1.872159750E0,1.250392944E-1,1.045064569E0,-6.432288885E-2
1.882104750E0,1.061590761E-1,9.709743857E-1,-7.459816337E-2
1.892049750E0,1.491967589E-1,9.501090050E-1,-1.095665619E-1
1.901994750E0,3.338057399E-1,9.864720702E-1,-1.668945700E-1
1.911939750E0,3.763808906E-1,8.117937446E-1,-1.598437577E-1
1.921884750E0,2.927893102E-1,5.887126923E-1,-1.767343283E-1
1.931829750E0,2.285637707E-1,3.962368369E-1,-2.130262703E-1
1.941774750E0,1.700653136E-1,2.511318624E-1,-2.451418638E-1
1.951719750E0,4.976444319E-2,2.414409071E-1,-2.691952288E-1
1.961664750E0,-1.605427265E-1,3.953362107E-1,-2.906195521E-1
1.971609750E0,-3.585361242E-1,7.585635185E-1,-3.615748286E-1
1.981554750E0,-4.460406899E-1,1.279878616E0,-3.562418520E-1
1.991500750E0,-4.851060808E-1,1.815482140E0,-3.105879724E-1
2.001445750E0,-5.399515033E-1,2.244782925E0,-2.448537052E-1
2.011390750E0,-5.967586040E-1,2.453143835E0,-1.991651207E-1
2.021335750E0,-5.768259168E-1,2.430333853E0,-1.451005489E-1
2.031280750E0,-4.769189060E-1,2.237564564E0,-1.046872586E-1
2.041225750E0,-3.447688818E-1,1.938678384E0,-1.036608741E-1
2.051170750E0,-1.883743554E-1,1.613645554E0,-1.562795490E-1
2.061115750E0,6.440927740E-3,1.368039608E0,-2.282067388E-1
2.071060750E0,1.620415151E-1,1.150407434E0,-2.688842118E-1
2.081005750E0,2.297558486E-1,8.630244732E-1,-2.670032382E-1
2.090950750E0,2.017416060E-1,4.846266806E-1,-1.699996293E-1
2.100895750E0,1.104196832E-1,1.163684726E-1,-3.753585741E-2
2.110840750E0,1.126837432E-1,-1.968083680E-1,-2.020666003E-2
2.120786750E0,-3.839939367E-3,-1.821708232E-1,-1.154061556E-1
2.130731750E0,-1.216677278E-1,1.059687138E-1,-8.542296290E-2
2.140676750E0,-9.954378754E-2,5.011647940E-1,-2.377097011E-1
2.150621750E0,-7.315779477E-2,7.582246065E-1,-3.541949391E-1
2.160566750E0,1.454489864E-2,8.146314025E-1,-3.801370561E-1
2.170511750E0,1.393084377E-1,7.074162960E-1,-3.538024724E-1
2.180456750E0,2.146348804E-1,4.820931852E-1,-2.894375920E-1
2.190401750E0,2.908186316E-1,1.307535172E-1,-2.080185115E-1
2.200346750E0,3.397715390E-1,-1.929246783E-1,-1.297399551E-1
2.210291750E0,3.733491600E-1,-4.207952917E-1,-2.290670574E-2
2.220236750E0,4.322199523E-1,-5.497913957E-1,1.098513454E-1
2.230181750E0,5.087944865E-1,-6.450156569E-1,2.746824920E-1
2.240126750E0,4.969202578E-1,-7.310602665E-1,5.228009820E-1
2.250072750E0,2.807455361E-1,-7.714525461E-1,8.337142467E-1
2.260017750E0,-5.663915724E-2,-7.218711972E-1,1.080240130E0
2.269962750E0,-1.489947289E-1,-4.059264064E-1,1.120488882E0
2.279907750E0,-3.382180631E-2,-3.314432502E-2,8.181546330E-1
2.289852750E0,1.087496132E-1,4.363501370E-1,4.219069481E-1
2.299797750E0,3.001707196E-1,8.166732192E-1,2.641498148E-1
2.309742750E0,4.602005482E-1,7.522549033E-1,2.107095271E-1
2.319687750E0,5.071625113E-1,3.883363605E-1,2.222833633E-1
2.329632750E0,4.234851599E-1,1.341663860E-2,2.689716518E-1
2.339577750E0,2.887286842E-1,-2.131406069E-1,3.155474067E-1
2.349522750E0,1.218435094E-1,-1.623966992E-1,3.397763968E-1
2.359467750E0,-9.497029334E-2,1.305896342E-1,3.612214923E-1
2.369413750E0,-3.075853884E-1,4.993895292E-1,3.994731605E-1
2.379358750E0,-4.540446103E-1,8.411625624E-1,5.233021379E-1
2.389303750E0,-4.723565280E-1,1.075806737E0,7.106045485E-1
2.399248750E0,-3.279173374E-1,1.070940614E0,8.644732237E-1
2.409193750E0,-9.107739478E-2,6.905602217E-1,9.247962236E-1
2.419138750E0,1.900227219E-1,2.510660887E-2,1.003829479E0
2.429083750E0,4.395412207E-1,-7.196073532E-1,1.139282703E0
2.439028750E0,6.090735197E-1,-1.342162013E0,1.267706990E0
2.448973750E0,6.953511834E-1,-1.613959908E0,1.357088566E0
2.458918750E0,6.729239225E-1,-1.648695230E0,1.326907516E0
2.468863750E0,5.359012485E-1,-1.473248839E0,1.220141530E0
2.478808750E0,3.370153010E-1,-1.027055621E0,1.108180642E0
2.488753750E0,2.280335575E-1,-4.966968298E-1,1.067760229E0
2.498699750E0,2.380672693E-1,-1.330474913E-1,1.061151266E0
2.508644750E0,3.069607019E-1,1.291860361E-2,1.074616909E0
2.518589500E0,4.043037593E-1,-2.727355808E-2,1.110726714E0
2.528534500E0,4.769939482E-1,-1.430343240E-1,1.141490340E0
2.538479500E0,4.637186229E-1,-1.749874651E-1,1.182004213E0
2.548424500E0,3.798670471E-1,-6.198062003E-2,1.173107624E0
2.558369500E0,2.423896343E-1,2.380862683E-1,1.150551200E0
2.568314500E0,2.276479304E-1,4.311725497E-1,1.195887685E0
2.578259500E0,2.999112010E-1,3.230114579E-1,1.268613100E0
2.588204500E0,3.129180968E-1,1.062585488E-1,1.292237401E0
2.598149500E0,3.462395668E-1,-2.482916415E-2,1.282807112E0
2.608094500E0,4.224561751E-1,-3.636782989E-2,1.305505157E0
2.618040500E0,5.178008080E-1,-1.259818673E-1,1.320662856E0
2.627985500E0,5.713210702E-1,-2.484667748E-1,1.317553401E0
2.637930500E0,5.583701730E-1,-3.320380151E-1,1.293465972E0
2.647875500E0,4.655861259E-1,-2.820639908E-1,1.235549331E0
2.657820500E0,3.384726346E-1,-1.195970476E-1,1.133289218E0
2.667765500E0,2.467781603E-1,9.376206249E-2,1.019100070E0
2.677710500E0,2.190741003E-1,2.277393043E-1,8.912057281E-1
2.687655500E0,2.242464274E-1,2.952122390E-1,7.797275186E-1
2.697600500E0,2.228796929E-1,3.667668402E-1,7.017445564E-1
2.707545500E0,1.837472469E-1,4.059865773E-1,6.400731206E-1
2.717490500E0,1.036864966E-1,3.409236670E-1,6.340498328E-1
2.727435500E0,9.280852042E-3,1.981971711E-1,6.374530196E-1
2.737381500E0,-5.778659880E-2,8.362505585E-2,6.727747917E-1
2.747326500E0,-1.032986119E-1,1.438273024E-2,7.471408248E-1
2.757271500E0,-1.189476103E-1,-2.416812256E-2,8.663058281E-1
2.767216500E0,-8.526143432E-2,-8.659605682E-2,1.019936442E0
2.777161500E0,1.785848173E-3,-1.296798885E-1,1.147035360E0
2.787106500E0,9.967364371E-2,-1.177658588E-1,1.230734229E0
2.797051500E0,2.324415445E-1,4.057957232E-2,1.250975370E0
2.806996500E0,3.548208773E-1,3.279975057E-1,1.174906015E0
2.816941500E0,3.686759770E-1,4.529956281E-1,1.065568805E0
2.826886500E0,3.552642465E-1,5.707359314E-1,1.069757581E0
2.836831500E0,4.270169735E-1,5.438784957E-1,9.889620543E-1
2.846776500E0,5.684636235E-1,5.300647020E-1,8.446805477E-1
2.856722500E0,7.080761194E-1,5.457382202E-1,7.955772281E-1
2.866667500E0,8.464842439E-1,4.235918820E-1,8.832746148E-1
2.876612500E0,4.211590290E-1,8.227251172E-1,9.948959351E-1
2.886557500E0,1.495432258E-1,1.494727850E0,8.046258688E-1
2.896502500E0,6.999344826E-1,1.794542193E0,3.196516931E-1
2.906447500E0,1.590502262E0,1.251196504E0,-4.464309812E-1
2.916392500E0,1.364047885E0,-3.749231994E-1,-8.430318832E-1
2.926337500E0,1.447812796E0,-6.890612841E-1,-8.405752182E-1
2.936282500E0,1.188498378E0,-4.905566573E-1,-7.136132717E-1
2.946227500E0,9.682136178E-1,-2.225833014E-3,-6.336233616E-1
2.956172500E0,7.397692800E-1,1.035531640E0,-6.169983149E-1
2.966117500E0,4.407661855E-1,1.692748308E0,-6.771554947E-1
2.976063500E0,9.013119340E-2,1.671171904E0,-6.218230128E-1
2.986008500E0,-2.304667830E-1,1.494675636E0,-5.265373588E-1
2.995953500E0,-2.949259579E-1,7.755755186E-1,-4.861175120E-1
3.005898500E0,1.383153051E-1,9.911993146E-2,-4.184839129E-1
3.015843500E0,3.107539415E-1,-4.223187566E-1,-1.968146265E-1
3.025788500E0,2.216021270E-1,-5.930880308E-1,-1.317877918E-1
3.035733500E0,3.098132089E-2,-1.166242957E-1,-1.652448177E-1
3.045678500E0,1.039046422E-1,1.949911267E-1,-1.880228817E-1
3.055623500E0,2.317321002E-1,4.140560925E-1,-1.951207370E-1
3.065568500E0,2.468645424E-1,5.072666407E-1,-1.782532632E-1
3.075513500E0,3.122392893E-1,4.993391633E-1,-1.759312451E-1
3.085459500E0,3.857875764E-1,4.325435162E-1,-1.719931811E-1
3.095404500E0,3.899985850E-1,3.579561114E-1,-1.509187967E-1
3.105349500E0,3.869262636E-1,2.906660438E-1,-1.741642803E-1
3.115294500E0,4.174284935E-1,1.693105996E-1,-2.016696781E-1
3.125239500E0,3.983625472E-1,3.798832744E-2,-2.079144716E-1
3.135184500E0,3.591102362E-1,-1.565217674E-1,-2.319127470E-1
3.145129500E0,3.595974445E-1,-4.125267863E-1,-2.705996931E-1
3.155074500E0,3.585380316E-1,-6.620503664E-1,-2.835048437E-1
3.165019500E0,3.409758806E-1,-8.528828025E-1,-2.885839045E-1
3.174964500E0,2.569712400E-1,-8.585774302E-1,-2.396131605E-1
3.184909500E0,9.682387114E-2,-6.306809187E-1,-2.651874125E-1
3.194855500E0,-3.741009906E-2,-5.093416572E-1,-2.820846140E-1
3.204800500E0,-1.792578101E-1,-5.789456367E-1,-2.092136592E-1
3.214745500E0,-2.864058614E-1,-5.525259972E-1,-1.357477009E-1
3.224690500E0,-3.341696262E-1,-4.811831713E-1,-7.633145154E-2
3.234635500E0,-3.281863034E-1,-4.557931125E-1,-5.486769602E-2
3.244580500E0,-2.384443283E-1,-4.254191220E-1,-4.631594568E-2
3.254525500E0,-1.073917747E-1,-3.766329288E-1,-4.085273668E-2
3.264470500E0,3.915954381E-2,-3.339557052E-1,-6.166110747E-3
3.274415500E0,1.439576000E-1,-3.631964028E-1,7.647231221E-2
3.284360500E0,2.334450781E-1,-3.928828239E-1,1.318853348E-1
3.294305500E0,3.875012100E-1,-3.246995211E-1,8.112814277E-2
3.304251500E0,5.901173949E-1,-2.648100853E-1,-2.015498281E-2
