"Time (s)","Acceleration x (m/s^2)","Acceleration y (m/s^2)","Acceleration z (m/s^2)"
0.000000000E0,4.979939461E-1,2.154781580E0,-2.853888512E0
1.000000000E-9,4.405331016E-1,2.001552582E0,-2.815581083E0
2.000000000E-9,4.022258818E-1,1.877054095E0,-2.796427488E0
1.422323000E-3,3.926490843E-1,1.771709204E0,-2.786850691E0
3.406177000E-3,4.118026793E-1,1.714248419E0,-2.777273893E0
5.420552000E-3,4.309563041E-1,1.695094824E0,-2.786850691E0
7.404406000E-3,4.596867263E-1,1.704671621E0,-2.806004286E0
9.418781000E-3,4.979939461E-1,1.742978811E0,-2.834734917E0
1.143315600E-2,5.458779931E-1,1.781286120E0,-2.873042107E0
1.341701100E-2,5.841852427E-1,1.848323703E0,-2.930502892E0
1.543138600E-2,6.512228847E-1,1.905784607E0,-2.959233284E0
1.741524000E-2,7.086837292E-1,1.972822189E0,-2.978386879E0
1.942961500E-2,7.565677166E-1,2.059013367E0,-2.987963676E0
2.141346900E-2,8.236053586E-1,2.135627985E0,-3.007117271E0
2.342784400E-2,9.289502501E-1,2.193088770E0,-3.026270866E0
2.541169800E-2,1.053448796E0,2.221819162E0,-3.016694069E0
2.742607300E-2,1.206677675E0,2.250549555E0,-2.987963676E0
2.940992700E-2,1.340752959E0,2.308010340E0,-2.911349297E0
3.142430200E-2,1.446097851E0,2.422932148E0,-2.806004286E0
3.340815600E-2,1.532289028E0,2.604891539E0,-2.691082716E0
3.542253100E-2,1.608903527E0,2.815581083E0,-2.557007313E0
3.740638600E-2,1.685518026E0,3.035847664E0,-2.413355350E0
3.942076100E-2,1.742978811E0,3.275267839E0,-2.260126352E0
4.140461500E-2,1.800439715E0,3.533841610E0,-2.135627985E0
4.341899000E-2,1.857900500E0,3.830722809E0,-2.030282974E0
4.543336500E-2,1.924938202E0,4.137180328E0,-1.972822189E0
4.741721900E-2,2.020706177E0,4.443638325E0,-1.963245392E0
4.943159400E-2,2.145204782E0,4.759673119E0,-2.001552582E0
5.141544800E-2,2.279279947E0,5.075707436E0,-2.116474390E0
5.342982300E-2,2.413355350E0,5.420472622E0,-2.279279947E0
5.541367700E-2,2.518700123E0,5.822698593E0,-2.442085743E0
5.742805200E-2,2.576161146E0,6.291962147E0,-2.576161146E0
5.941190600E-2,2.614468336E0,6.789956093E0,-2.681505919E0
6.142628100E-2,2.643198729E0,7.287950039E0,-2.738966703E0
6.341013600E-2,2.652775526E0,7.814674377E0,-2.710236311E0
6.542451100E-2,2.633621931E0,8.341399193E0,-2.624045134E0
6.740836500E-2,2.604891539E0,8.877699852E0,-2.480392933E0
6.942274000E-2,2.537853718E0,9.394847870E0,-2.317587137E0
7.140659400E-2,2.432508945E0,9.864110947E0,-2.154781580E0
7.342096900E-2,2.288856745E0,1.025675964E1,-2.030282974E0
7.540482300E-2,2.135627985E0,1.055364132E1,-1.953668594E0
7.741919800E-2,1.972822189E0,1.075475407E1,-1.944091797E0
7.943357300E-2,1.781286120E0,1.086967564E1,-1.963245392E0
8.141742700E-2,1.580173135E0,1.088882923E1,-2.011129379E0
8.343180200E-2,1.340752959E0,1.084094524E1,-2.068590164E0
8.541565600E-2,1.082179189E0,1.076433086E1,-2.126051188E0
8.743003100E-2,8.140285611E-1,1.065898609E1,-2.173935175E0
8.941388600E-2,5.554547906E-1,1.053448772E1,-2.193088770E0
9.142826100E-2,2.873041928E-1,1.038125896E1,-2.212242365E0
9.341211500E-2,1.628057212E-1,1.028549004E1,-2.260126352E0
9.542649000E-2,-5.746084079E-2,1.009395409E1,-2.375048161E0
9.741034400E-2,-2.394201756E-1,9.931148529E0,-2.480392933E0
9.942471900E-2,-4.022258818E-1,9.797073364E0,-2.576161146E0
1.014085730E-1,-4.979939461E-1,9.653421402E0,-2.681505919E0
1.034229480E-1,-4.979939461E-1,9.461885452E0,-2.777273893E0
1.054068020E-1,-4.596867263E-1,9.222464561E0,-2.882618904E0
1.074211770E-1,-4.118026793E-1,8.983044624E0,-3.131615877E0
1.094050310E-1,-4.118026793E-1,8.810662270E0,-3.495534420E0
1.114194060E-1,-4.501099288E-1,8.686163902E0,-3.811569214E0
1.134337810E-1,-4.692635238E-1,8.599972725E0,-4.003105164E0
1.154176360E-1,-5.554547906E-1,8.619126320E0,-3.936067581E0
1.174320110E-1,-5.554547906E-1,8.619126320E0,-3.936067581E0
1.194158650E-1,-6.416460276E-1,8.743624687E0,-3.763684988E0
1.214302400E-1,-7.086837292E-1,9.002198219E0,-3.495534420E0
1.234140940E-1,-7.661445141E-1,9.394847870E0,-3.160346270E0
1.254284690E-1,-8.140285611E-1,9.931148529E0,-2.796427488E0
1.274123230E-1,-8.331822157E-1,1.058237171E1,-2.384624958E0
1.294266980E-1,-8.427590132E-1,1.131020927E1,-1.934514999E0
1.314105520E-1,-8.044517636E-1,1.213381386E1,-1.474828243E0
1.334249270E-1,-7.182605267E-1,1.307234097E1,-1.015141487E0
1.354087810E-1,-6.033388376E-1,1.419282722E1,-5.363011956E-1
1.374231560E-1,-4.884171486E-1,1.549527359E1,-2.873042040E-2
1.394070110E-1,-3.543418646E-1,1.686475754E1,4.692635238E-1
1.414213860E-1,-2.298433632E-1,1.822466278E1,9.097966552E-1
1.434052400E-1,-9.576806426E-2,1.949837875E1,1.110909581E0
1.454196150E-1,-2.873042040E-2,2.068590355E1,9.481038451E-1
1.474339900E-1,-1.340752989E-1,2.182554245E1,4.405331016E-1
1.494178440E-1,-4.692635238E-1,2.295560646E1,-3.543418646E-1
1.514322190E-1,-1.043871999E0,2.407609177E1,-1.340752959E0
1.534160730E-1,-1.800439715E0,2.511996460E1,-2.499546528E0
1.554304480E-1,-2.671929121E0,2.601060677E1,-3.725377798E0
1.574143020E-1,-3.639186621E0,2.663310051E1,-4.903325081E0
1.594286770E-1,-4.654327869E0,2.679590607E1,-5.975927353E0
1.614125310E-1,-5.621585369E0,2.633621788E1,-6.856993675E0
1.634269060E-1,-6.349422932E0,2.510081100E1,-7.460332394E0
1.654107610E-1,-6.665457726E0,2.315671921E1,-7.805097580E0
1.674251360E-1,-6.607996464E0,2.081997871E1,-7.872135162E0
1.694089900E-1,-6.253654957E0,1.838746834E1,-7.584830761E0
1.714233650E-1,-5.688623428E0,1.602199745E1,-6.981492043E0
1.734072190E-1,-4.999093056E0,1.380975533E1,-6.205770969E0
1.754215940E-1,-4.242525578E0,1.180820274E1,-5.334281445E0
1.774054480E-1,-3.476380825E0,1.001733971E1,-4.529829502E0
1.794198230E-1,-2.738966703E0,8.446743965E0,-3.916913986E0
1.814341980E-1,-2.068590164E0,7.125144482E0,-3.524264812E0
1.834180520E-1,-1.465251446E0,6.090848923E0,-3.313575268E0
1.854324270E-1,-9.002198577E-1,5.343858242E0,-3.169923067E0
1.874162810E-1,-3.639186621E-1,4.903325081E0,-3.035847664E0
1.894306560E-1,1.532289088E-1,4.769249916E0,-2.882618904E0
1.914145110E-1,6.799532771E-1,4.912901878E0,-2.671929121E0
1.934288860E-1,1.264138460E0,5.267243862E0,-2.384624958E0
1.954127400E-1,1.857900500E0,5.755661011E0,-2.011129379E0
1.974271150E-1,2.451662540E0,6.330269337E0,-1.580173135E0
1.994109690E-1,3.045424461E0,6.991068840E0,-1.177947283E0
2.014253440E-1,3.629609823E0,7.795520782E0,-9.002198577E-1
2.034091980E-1,4.185064793E0,8.724471092E0,-7.565677166E-1
2.054235730E-1,4.750096321E0,9.701305389E0,-7.374141216E-1
2.074074270E-1,5.305551052E0,1.064940929E1,-7.374141216E-1
2.094218020E-1,5.851428986E0,1.161666679E1,-6.895300746E-1
2.114361770E-1,6.378153324E0,1.258392429E1,-5.554547906E-1
2.134200310E-1,6.943184853E0,1.347456741E1,-4.118026793E-1
2.154344060E-1,7.517793179E0,1.422155857E1,-3.351882398E-1
2.174182610E-1,7.795520782E0,1.453759289E1,-3.256114423E-1
2.194326360E-1,8.283937454E0,1.504516315E1,-3.734954596E-1
2.214164900E-1,8.599972725E0,1.538992882E1,-4.501099288E-1
2.234308650E-1,8.657433510E0,1.561019516E1,-4.788403511E-1
2.254147190E-1,8.379706383E0,1.575384712E1,-4.501099288E-1
2.274290940E-1,7.709329605E0,1.587834549E1,-3.639186621E-1
2.294129480E-1,6.732495308E0,1.597411346E1,-2.106897533E-1
2.314273230E-1,5.583278179E0,1.606030464E1,-2.873042040E-2
2.334111770E-1,4.405331135E0,1.607945824E1,1.053448766E-1
2.354255520E-1,3.303998232E0,1.604115105E1,2.106897533E-1
2.374094060E-1,2.298433542E0,1.591665268E1,2.681505978E-1
2.394237810E-1,1.379060149E0,1.567723274E1,3.447650373E-1
2.414076360E-1,5.554547906E-1,1.533246803E1,4.596867263E-1
2.434220110E-1,-8.619125932E-2,1.495897198E1,5.267243981E-1
2.454058650E-1,-6.129156351E-1,1.456632328E1,4.979939461E-1
2.474202400E-1,-1.110909581E0,1.416409683E1,4.788403511E-1
2.494040940E-1,-1.608903527E0,1.379060173E1,5.075707436E-1
2.514184690E-1,-2.126051188E0,1.348414421E1,5.746083856E-1
2.534328440E-1,-2.662352324E0,1.325430107E1,6.512228847E-1
2.554166980E-1,-3.208230257E0,1.308191776E1,6.512228847E-1
2.574310730E-1,-3.773261786E0,1.293826580E1,5.746083856E-1
2.594149270E-1,-4.328716755E0,1.280419064E1,4.022258818E-1
2.614293020E-1,-4.836287498E0,1.267011547E1,1.819593310E-1
2.634131560E-1,-5.209783077E0,1.252646351E1,-1.149216816E-1
2.654275310E-1,-5.468356609E0,1.232535076E1,-4.213795066E-1
2.674113860E-1,-5.583278179E0,1.205719948E1,-7.469909191E-1
2.694257610E-1,-5.573701382E0,1.173158836E1,-1.015141487E0
2.714096150E-1,-5.497087002E0,1.139640045E1,-1.225831270E0
2.734239900E-1,-5.334281445E0,1.103248119E1,-1.369483352E0
2.754078440E-1,-5.094861031E0,1.068771648E1,-1.493981838E0
2.774222190E-1,-4.855441093E0,1.043871975E1,-1.675941229E0
2.794060730E-1,-4.654327869E0,1.026633644E1,-1.924938202E0
2.814204480E-1,-4.481945515E0,1.018014526E1,-2.202665567E0
2.834348230E-1,-4.338293552E0,1.017056847E1,-2.451662540E0
2.854186770E-1,-4.213795185E0,1.018972206E1,-2.624045134E0
2.874330520E-1,-4.127603531E0,1.018972206E1,-2.700659513E0
2.894169060E-1,-4.060565948E0,1.018972206E1,-2.710236311E0
2.914312810E-1,-3.983951569E0,1.018014526E1,-2.671929121E0
2.934151360E-1,-3.888183594E0,1.016099167E1,-2.595314741E0
2.954295110E-1,-3.792415380E0,1.016099167E1,-2.528276920E0
2.974133650E-1,-3.715801001E0,1.022802925E1,-2.499546528E0
2.994277400E-1,-3.667917013E0,1.035252857E1,-2.509123325E0
3.014115940E-1,-3.639186621E0,1.047702694E1,-2.566584110E0
3.034259690E-1,-3.648763418E0,1.057279491E1,-2.671929121E0
3.054098230E-1,-3.658340216E0,1.066856289E1,-2.815581083E0
3.074241980E-1,-3.648763418E0,1.079306126E1,-3.007117271E0
3.094080520E-1,-3.610456228E0,1.101332760E1,-3.189076662E0
3.114224270E-1,-3.552995205E0,1.131978607E1,-3.323152065E0
3.134062810E-1,-3.409343243E0,1.163582039E1,-3.418920040E0
3.154206560E-1,-3.160346270E0,1.188481712E1,-3.543418407E0
3.174350310E-1,-2.815581083E0,1.201889229E1,-3.658340216E0
3.194188860E-1,-2.365471363E0,1.198058510E1,-3.773261786E0
3.214332610E-1,-1.829170108E0,1.175074196E1,-3.859453201E0
3.234171150E-1,-1.244984865E0,1.135809326E1,-3.897760391E0
3.254314900E-1,-6.224924326E-1,1.085052204E1,-3.888183594E0
3.274153440E-1,-1.915361360E-2,1.027591324E1,-3.782838583E0
3.294297190E-1,5.458779931E-1,9.653421402E0,-3.610456228E0
3.314135730E-1,1.053448796E0,9.030928612E0,-3.390189648E0
3.334279480E-1,1.513135433E0,8.446743965E0,-3.150769472E0
3.354118020E-1,1.896207690E0,7.910442352E0,-2.901772499E0
3.374261770E-1,2.202665567E0,7.450755596E0,-2.652775526E0
3.394100310E-1,2.432508945E0,7.048529625E0,-2.394201756E0
3.414244060E-1,2.604891539E0,6.713341713E0,-2.154781580E0
3.434082610E-1,2.710236311E0,6.445190907E0,-1.944091797E0
3.454226360E-1,2.758120298E0,6.224924564E0,-1.781286120E0
3.474064900E-1,2.777273893E0,5.966350555E0,-1.599326730E0
3.494208650E-1,2.729389906E0,5.679046631E0,-1.312022567E0
3.514352400E-1,2.595314741E0,5.525817394E0,-1.053448796E0
3.534190940E-1,2.480392933E0,5.477933407E0,-7.278373241E-1
3.554334690E-1,2.336740971E0,5.458779812E0,-4.213795066E-1
3.574173230E-1,2.154781580E0,5.449203014E0,-2.011129409E-1
3.594316980E-1,1.972822189E0,5.468356609E0,-5.746084079E-2
3.614155520E-1,1.790862918E0,5.497087002E0,2.873042040E-2
3.634299270E-1,1.599326730E0,5.535394192E0,9.576806426E-2
3.654137810E-1,1.426944256E0,5.564124584E0,1.244984865E-1
3.674281560E-1,1.254561663E0,5.602431774E0,1.628057212E-1
3.694120110E-1,1.082179189E0,5.640739441E0,2.202665508E-1
3.714263860E-1,9.002198577E-1,5.688623428E0,2.873041928E-1
3.734102400E-1,7.278373241E-1,5.736507416E0,3.830722570E-1
3.754246150E-1,5.746083856E-1,5.793968201E0,4.884171486E-1
3.774084690E-1,4.022258818E-1,5.851428986E0,6.224924326E-1
3.794228440E-1,2.394201756E-1,5.918466568E0,7.565677166E-1
3.814066980E-1,7.661445439E-2,5.985504150E0,8.714894056E-1
3.834210730E-1,-6.703764945E-2,6.033388138E0,9.672574997E-1
3.854049270E-1,-2.106897533E-1,6.071695328E0,1.034295082E0
3.874193020E-1,-3.734954596E-1,6.090848923E0,1.072602391E0
3.894336770E-1,-5.458779931E-1,6.129156113E0,1.091755986E0
3.914175310E-1,-7.182605267E-1,6.148310184E0,1.091755986E0
3.934319060E-1,-8.906430602E-1,6.138733387E0,1.091755986E0
3.954157610E-1,-1.053448796E0,6.110002518E0,1.072602391E0
3.974301360E-1,-1.216254473E0,6.090848923E0,1.072602391E0
3.994139900E-1,-1.369483352E0,6.052541733E0,1.091755986E0
4.014283650E-1,-1.503558636E0,6.023811340E0,1.110909581E0
4.034122190E-1,-1.656787634E0,6.023811340E0,1.120486379E0
4.054265940E-1,-1.781286120E0,6.004657745E0,1.158793569E0
4.074104480E-1,-1.896207690E0,5.975927353E0,1.197100878E0
4.094248230E-1,-2.011129379E0,5.937620163E0,1.206677675E0
4.114086770E-1,-2.116474390E0,5.880159378E0,1.149216771E0
4.134230520E-1,-2.212242365E0,5.803544998E0,1.043871999E0
4.154069060E-1,-2.308010340E0,5.755661011E0,8.810662031E-1
4.174212810E-1,-2.422932148E0,5.736507416E0,6.799532771E-1
4.194051360E-1,-2.528276920E0,5.736507416E0,4.213795066E-1
4.214195110E-1,-2.604891539E0,5.746084213E0,9.576806426E-2
4.234338860E-1,-2.691082716E0,5.765237808E0,-1.819593310E-1
4.254177400E-1,-2.738966703E0,5.784391403E0,-4.788403511E-1
4.274321150E-1,-2.777273893E0,5.813121796E0,-7.757213712E-1
4.294159690E-1,-2.806004286E0,5.851428986E0,-1.034295082E0
4.314303440E-1,-2.825158119E0,5.889736176E0,-1.273715258E0
4.334141980E-1,-2.853888512E0,5.947196960E0,-1.446097851E0
4.354285730E-1,-2.825158119E0,6.014234543E0,-1.647210717E0
4.374124270E-1,-2.806004286E0,6.042964935E0,-1.685518026E0
4.394268020E-1,-2.767697096E0,6.100425720E0,-1.733402014E0
4.414106560E-1,-2.729389906E0,6.177040577E0,-1.752555609E0
4.434250310E-1,-2.681505919E0,6.253654957E0,-1.781286120E0
4.454088860E-1,-2.614468336E0,6.311115742E0,-1.790862918E0
4.474232610E-1,-2.537853718E0,6.378153324E0,-1.762132406E0
4.494071150E-1,-2.461239338E0,6.445190907E0,-1.695094824E0
4.514214900E-1,-2.394201756E0,6.521805286E0,-1.618480325E0
4.534053440E-1,-2.317587137E0,6.588842869E0,-1.551442742E0
4.554197190E-1,-2.240972757E0,6.646304131E0,-1.513135433E0
4.574340940E-1,-2.164358377E0,6.694188118E0,-1.474828243E0
4.594179480E-1,-2.087743998E0,6.751648903E0,-1.446097851E0
4.614323230E-1,-2.001552582E0,6.789956093E0,-1.436521053E0
4.634161770E-1,-1.944091797E0,6.876147270E0,-1.446097851E0
4.654305520E-1,-1.905784607E0,7.000645638E0,-1.436521053E0
4.674144060E-1,-1.886630893E0,7.134721279E0,-1.369483352E0
4.694287810E-1,-1.867477298E0,7.268796444E0,-1.283292055E0
4.714126360E-1,-1.867477298E0,7.402871609E0,-1.168370485E0
4.734270110E-1,-1.886630893E0,7.565677166E0,-1.024718285E0
4.754108650E-1,-1.915361404E0,7.728483200E0,-8.619126081E-1
4.774252400E-1,-1.915361404E0,7.881711960E0,-6.991068721E-1
4.794090940E-1,-1.857900500E0,8.034940720E0,-5.746083856E-1
4.814234690E-1,-1.723825216E0,8.169015884E0,-4.979939461E-1
4.834073230E-1,-1.541865945E0,8.274360657E0,-4.405331016E-1
4.854216980E-1,-1.350329757E0,8.370129585E0,-3.830722570E-1
4.874360730E-1,-1.158793569E0,8.446743965E0,-2.968810201E-1
4.894199270E-1,-9.768342972E-1,8.504204750E0,-2.106897533E-1
4.914343020E-1,-8.044517636E-1,8.580819130E0,-2.298433632E-1
4.934181560E-1,-6.703764796E-1,8.619126320E0,-2.681505978E-1
4.954325310E-1,-5.746083856E-1,8.628703117E0,-1.628057212E-1
4.974163860E-1,-5.075707436E-1,8.657433510E0,-9.576806799E-3
4.994307610E-1,-4.596867263E-1,8.695740700E0,8.619125932E-2
5.014451360E-1,-4.405331016E-1,8.734047890E0,1.628057212E-1
5.034289900E-1,-4.501099288E-1,8.772355080E0,2.777273953E-1
5.054128440E-1,-4.979939461E-1,8.810662270E0,4.596867263E-1
5.074272190E-1,-5.554547906E-1,8.858546257E0,6.416460276E-1
5.094110730E-1,-5.937620401E-1,8.896853447E0,7.757213712E-1
5.114254480E-1,-6.416460276E-1,8.916007042E0,9.002198577E-1
5.134093020E-1,-6.799532771E-1,8.925583839E0,9.768342972E-1
5.154236770E-1,-7.374141216E-1,8.935160637E0,9.959878922E-1
5.174075310E-1,-7.469909191E-1,8.935160637E0,9.385270476E-1
5.194219060E-1,-7.278373241E-1,8.916007042E0,7.374141216E-1
5.214362810E-1,-7.278373241E-1,8.896853447E0,4.596867263E-1
5.234201360E-1,-6.799532771E-1,8.877699852E0,1.149216816E-1
5.254345110E-1,-6.512228847E-1,8.839392662E0,-3.160346150E-1
5.274183650E-1,-6.129156351E-1,8.801085472E0,-8.331822157E-1
5.294327400E-1,-5.746083856E-1,8.753201485E0,-1.398213744E0
5.314165940E-1,-5.171475410E-1,8.657433510E0,-2.059013367E0
5.334309690E-1,-4.501099288E-1,8.532935143E0,-2.796427488E0
5.354148230E-1,-3.639186621E-1,8.389283180E0,-3.562572241E0
5.374291980E-1,-2.681505978E-1,8.236053467E0,-4.357447147E0
5.394130520E-1,-1.436520964E-1,8.063671112E0,-5.152322292E0
5.414274270E-1,-1.915361360E-2,7.891288757E0,-5.928043365E0
5.434112810E-1,8.619125932E-2,7.718906403E0,-6.665457726E0
5.454256560E-1,1.915361285E-1,7.575253963E0,-7.316680431E0
5.474095110E-1,3.160346150E-1,7.441178799E0,-7.872135162E0
5.494238860E-1,4.405331016E-1,7.345410824E0,-8.312667847E0
5.514077400E-1,5.554547906E-1,7.307103634E0,-8.628703117E0
5.534221150E-1,6.799532771E-1,7.307103634E0,-8.839392662E0
5.554059690E-1,8.044517636E-1,7.335834026E0,-8.944737434E0
5.574203440E-1,9.481038451E-1,7.412448406E0,-8.916007042E0
5.594347190E-1,1.110909581E0,7.527369976E0,-8.753201485E0
5.614185730E-1,1.312022567E0,7.671022415E0,-8.513781548E0
5.634329480E-1,1.551442742E0,7.833827972E0,-8.197746277E0
5.654168020E-1,1.819593310E0,8.034940720E0,-7.805097580E0
5.674311770E-1,2.068590164E0,8.264783859E0,-7.364564419E0
5.694150310E-1,2.298433542E0,8.523358345E0,-6.876147270E0
5.714294060E-1,2.509123325E0,8.810662270E0,-6.368576527E0
5.734132610E-1,2.691082716E0,9.078812599E0,-5.851428986E0
5.754276360E-1,2.844311714E0,9.337387085E0,-5.363011837E0
5.774114900E-1,2.987963676E0,9.576807022E0,-4.941632271E0
5.794258650E-1,3.112462282E0,9.806650162E0,-4.596867085E0
5.814097190E-1,3.208230257E0,1.001733971E1,-4.299986362E0
5.834240940E-1,3.303998232E0,1.018972206E1,-4.070142746E0
5.854079480E-1,3.399766445E0,1.033337498E1,-3.926490784E0
5.874223230E-1,3.495534420E0,1.043871975E1,-3.897760391E0
5.894061770E-1,3.591302633E0,1.051533413E1,-3.916913986E0
5.914205520E-1,3.687070608E0,1.053448772E1,-3.974374771E0
5.934044060E-1,3.782838583E0,1.052491093E1,-4.022258759E0
5.954187810E-1,3.869029999E0,1.048660374E1,-4.118026733E0
5.974331560E-1,3.964797974E0,1.040998936E1,-4.271255970E0
5.994170110E-1,4.050989151E0,1.031422138E1,-4.414907932E0
6.014313860E-1,4.118026733E0,1.021845245E1,-4.539406300E0
6.034152400E-1,4.146757126E0,1.011310768E1,-4.606443882E0
6.054296150E-1,4.127603531E0,1.002691650E1,-4.606443882E0
6.074134690E-1,4.050989151E0,9.959878922E0,-4.548983097E0
6.094278440E-1,3.926490784E0,9.892841339E0,-4.434061527E0
6.114116980E-1,3.744531393E0,9.816226959E0,-4.242525578E0
6.134260730E-1,3.562572241E0,9.739612579E0,-3.983951569E0
6.154099270E-1,3.227383852E0,9.519346237E0,-3.371036053E0
6.174243020E-1,3.227383852E0,9.519346237E0,-3.371036053E0
6.194081560E-1,3.102885485E0,9.385271072E0,-3.074155092E0
6.214225310E-1,3.016694069E0,9.232041359E0,-2.844311714E0
6.234063860E-1,2.968810081E0,9.059659004E0,-2.719813108E0
6.254207610E-1,2.959233284E0,8.868123055E0,-2.729389906E0
6.274046150E-1,2.959233284E0,8.686163902E0,-2.834734917E0
6.294189900E-1,2.959233284E0,8.523358345E0,-2.997540474E0
6.314333650E-1,2.987963676E0,8.379706383E0,-3.208230257E0
6.334172190E-1,3.035847664E0,8.274360657E0,-3.438073635E0
6.354315940E-1,3.122039080E0,8.197746277E0,-3.658340216E0
6.374154480E-1,3.217807055E0,8.169015884E0,-3.830722809E0
6.394298230E-1,3.294421434E0,8.169015884E0,-3.926490784E0
6.414136770E-1,3.361459255E0,8.207323074E0,-3.926490784E0
6.434280520E-1,3.380612850E0,8.245630264E0,-3.849876404E0
6.454119060E-1,3.342305660E0,8.283937454E0,-3.706224203E0
6.474262810E-1,3.256114244E0,8.341399193E0,-3.495534420E0
6.494101360E-1,3.122039080E0,8.398859978E0,-3.236960649E0
6.514245110E-1,2.911349297E0,8.456320763E0,-2.949656487E0
6.534083650E-1,2.633621931E0,8.523358345E0,-2.652775526E0
6.554227400E-1,2.298433542E0,8.599972725E0,-2.355894566E0
6.574065940E-1,1.915361404E0,8.676587105E0,-2.087743998E0
6.594209690E-1,1.474828243E0,8.762778282E0,-1.819593310E0
6.614353440E-1,9.959878922E-1,8.858546257E0,-1.570596337E0
6.634191980E-1,4.692635238E-1,8.963891029E0,-1.321599364E0
6.654335730E-1,-7.661445439E-2,9.107542992E0,-1.053448796E0
6.674174270E-1,-6.320692301E-1,9.270348549E0,-7.661445141E-1
6.694318020E-1,-1.206677675E0,9.481039047E0,-4.788403511E-1
