"Time (s)","Acceleration x (m/s^2)","Acceleration y (m/s^2)","Acceleration z (m/s^2)"
7.232666000E-3,-1.721875000E1,-3.672988892E0,-4.261611938E0
9.643555000E-3,-1.696751404E1,-3.196807861E0,-6.034698486E0
1.205444300E-2,-1.689332581E1,-2.962310791E0,-5.891128540E0
1.446533200E-2,-1.685983276E1,-2.744567871E0,-5.649459839E0
1.687622100E-2,-1.691725159E1,-2.428710938E0,-4.898101807E0
1.928710900E-2,-1.746281433E1,-2.096115112E0,-2.383255005E0
2.166748100E-2,-1.752264404E1,-2.143966675E0,-2.268402100E0
2.404785200E-2,-1.782652283E1,-2.376068115E0,-6.340942383E-1
2.642822300E-2,-1.811845398E1,-2.579467773E0,1.091125488E0
2.883911100E-2,-1.822134399E1,-2.373687744E0,1.557723999E0
3.121948300E-2,-1.829791260E1,-2.017150879E0,2.376068115E0
3.363037100E-2,-1.839842224E1,-1.643875122E0,3.972091675E0
3.604126000E-2,-1.833381653E1,-1.141372681E0,7.214355469E0
3.842163100E-2,-1.799641418E1,-5.359954834E-1,1.059541321E1
4.083252000E-2,-1.727618408E1,-7.896423340E-2,1.112423706E1
4.324340800E-2,-1.642193604E1,2.751770020E-1,1.045903015E1
4.565429700E-2,-1.548634338E1,4.785614014E-1,8.987442017E0
4.806518600E-2,-1.461535645E1,5.024871826E-1,7.518249512E0
5.044555700E-2,-1.373001099E1,4.809570312E-1,6.108871460E0
5.285644500E-2,-1.290449524E1,3.517456055E-1,4.991424561E0
5.526733400E-2,-1.219143677E1,1.794586182E-1,3.584442139E0
5.767822300E-2,-1.161715698E1,1.387786865E-1,2.227722168E0
6.005859400E-2,-1.111465454E1,1.268157959E-1,1.256225586E0
6.246948300E-2,-1.060737610E1,0.000000000E0,5.144500732E-1
6.488037100E-2,-1.022932434E1,-1.555328369E-1,-3.924255371E-1
6.729126000E-2,-9.939788818E0,-2.679901123E-1,-1.069595337E0
6.967163100E-2,-9.829711914E0,-4.881286621E-1,-1.703689575E0
7.208252000E-2,-9.927825928E0,-7.369842529E-1,-2.194213867E0
7.449340800E-2,-1.002352905E1,-1.129409790E0,-2.438293457E0
7.690429700E-2,-1.012164307E1,-1.576873779E0,-2.498107910E0
7.931518600E-2,-1.019342041E1,-2.021942139E0,-2.469390869E0
8.169555700E-2,-1.031785583E1,-2.411972046E0,-2.301895142E0
8.410644500E-2,-1.044227600E1,-2.802001953E0,-2.194213867E0
8.651733400E-2,-1.054277039E1,-3.244674683E0,-2.139190674E0
8.892822300E-2,-1.056431580E1,-3.787841797E0,-2.129608154E0
9.130859400E-2,-1.060737610E1,-4.130004883E0,-2.172683716E0
9.371948300E-2,-1.066720581E1,-4.328613281E0,-2.399993896E0
9.613037100E-2,-1.066001892E1,-4.512863159E0,-2.416748047E0
9.854126000E-2,-1.070788574E1,-4.651641846E0,-2.543563843E0
1.009216310E-1,-1.058106995E1,-4.756927490E0,-2.560317993E0
1.033325200E-1,-1.065045166E1,-4.900497437E0,-2.897705078E0
1.057434080E-1,-1.054756165E1,-4.972290039E0,-3.127426147E0
1.081542970E-1,-1.045184326E1,-5.003387451E0,-3.194412231E0
1.105346680E-1,-1.035134888E1,-5.015350342E0,-3.213562012E0
1.129455570E-1,-9.949356079E0,-5.211563110E0,-3.299697876E0
1.153564450E-1,-9.645462036E0,-5.340774536E0,-3.144165039E0
1.177673340E-1,-9.257827759E0,-5.371887207E0,-2.952743530E0
1.201782230E-1,-8.793624878E0,-5.359924316E0,-2.928817749E0
1.225585940E-1,-8.652450562E0,-5.259429932E0,-2.859420776E0
1.249694830E-1,-8.417953491E0,-5.278564453E0,-2.737396240E0
1.273803710E-1,-8.226531982E0,-5.276168823E0,-2.562713623E0
1.297912600E-1,-8.305480957E0,-5.343170166E0,-2.603393555E0
1.322021490E-1,-8.489730835E0,-5.374282837E0,-2.653640747E0
1.346130370E-1,-8.879760742E0,-5.498703003E0,-2.653640747E0
1.370239260E-1,-9.226730347E0,-5.759521484E0,-2.684753418E0
1.394348150E-1,-9.202789307E0,-6.154342651E0,-2.507675171E0
1.418151860E-1,-9.499511719E0,-6.520446777E0,-2.711074829E0
1.442260740E-1,-9.726821899E0,-6.711868286E0,-2.735000610E0
1.466369630E-1,-9.616760254E0,-6.893722534E0,-2.481353760E0
1.490478520E-1,-9.722045898E0,-7.111465454E0,-2.636886597E0
1.514282230E-1,-9.410964966E0,-7.288543701E0,-2.732604980E0
1.538391110E-1,-9.193222046E0,-7.444076538E0,-2.648849487E0
1.562500000E-1,-9.269790649E0,-7.506286621E0,-2.902496338E0
1.586608890E-1,-8.805587769E0,-7.649856567E0,-2.864212036E0
1.610412600E-1,-8.006378174E0,-7.544570923E0,-2.555541992E0
1.634521490E-1,-8.243270874E0,-6.838684082E0,-2.979064941E0
1.658630370E-1,-7.836486816E0,-7.484756470E0,-3.414550781E0
1.682739260E-1,-6.391235352E0,-7.901107788E0,-3.328414917E0
1.706848150E-1,-5.324035645E0,-8.015960693E0,-3.381057739E0
1.730651860E-1,-4.383651733E0,-8.362915039E0,-3.988830566E0
1.754760740E-1,-3.321243286E0,-8.499313354E0,-4.175476074E0
1.778869630E-1,-2.277969360E0,-8.365310669E0,-4.706680298E0
1.802978520E-1,-1.397415161E0,-8.161911011E0,-4.893325806E0
1.826782230E-1,-6.006011963E-1,-7.834106445E0,-5.458023071E0
1.850891110E-1,-3.062744141E-1,-6.836288452E0,-5.584854126E0
1.875000000E-1,-8.375549316E-2,-6.508483887E0,-5.603988647E0
1.899108890E-1,9.379882812E-1,-6.987045288E0,-5.532211304E0
1.922912600E-1,1.902297974E0,-6.695114136E0,-5.300109863E0
1.947021490E-1,2.703887939E0,-6.733398438E0,-4.900497437E0
1.971130370E-1,3.342773438E0,-6.874572754E0,-4.534393311E0
1.995239260E-1,3.792617798E0,-6.510864258E0,-3.598800659E0
2.019042970E-1,4.070190430E0,-6.108871460E0,-2.873779297E0
2.043151860E-1,4.352539062E0,-5.692520142E0,-2.684753418E0
2.067260740E-1,4.644470215E0,-5.307281494E0,-2.679962158E0
2.091369630E-1,4.582260132E0,-4.287933350E0,-2.624923706E0
2.115173340E-1,4.331008911E0,-3.596405029E0,-3.053237915E0
2.139282230E-1,4.876571655E0,-4.089340210E0,-3.426528931E0
2.163391110E-1,5.017745972E0,-3.996017456E0,-3.701690674E0
2.187500000E-1,4.881362915E0,-3.826126099E0,-4.520034790E0
2.211303710E-1,4.515258789E0,-3.723236084E0,-4.752151489E0
2.235412600E-1,3.976867676E0,-3.383453369E0,-4.539184570E0
2.259521490E-1,3.512664795E0,-3.110671997E0,-4.785644531E0
2.283630370E-1,3.036499023E0,-2.892929077E0,-4.969894409E0
2.307739260E-1,2.230117798E0,-2.706283569E0,-5.151748657E0
2.331542970E-1,1.545761108E0,-2.490921021E0,-5.556137085E0
2.355651860E-1,9.619140625E-1,-2.239685059E0,-5.431701660E0
2.379760740E-1,6.269226074E-1,-1.945358276E0,-4.926818848E0
2.403869630E-1,-1.411743164E-1,-1.629516602E0,-4.180267334E0
2.427673340E-1,-1.091125488E0,-1.253845215E0,-3.976867676E0
2.451782230E-1,-1.493118286E0,-1.031311035E0,-3.498306274E0
2.475891110E-1,-1.634292603E0,-7.800598145E-1,-2.873779297E0
2.500000000E-1,-1.921432495E0,-6.173553467E-1,-2.421539307E0
2.523803710E-1,-1.976470947E0,-2.512512207E-1,-2.392822266E0
2.547912600E-1,-2.325820923E0,-7.171630859E-3,-2.538787842E0
2.572021490E-1,-2.388031006E0,3.708801270E-1,-2.488540649E0
2.596130370E-1,-2.215759277E0,7.489471436E-1,-2.416748047E0
2.619934080E-1,-1.909469604E0,1.138977051E0,-2.531600952E0
2.644042970E-1,-1.667800903E0,1.555328369E0,-2.603393555E0
2.668151860E-1,-1.550552368E0,1.720443726E0,-2.751739502E0
2.692260740E-1,-1.490722656E0,1.823333740E0,-3.031707764E0
2.716064450E-1,-1.966903687E0,1.935791016E0,-2.399993896E0
2.740173340E-1,-2.452636719E0,2.062606812E0,-1.631912231E0
2.764282230E-1,-2.667999268E0,2.060226440E0,-1.191619873E0
2.788391110E-1,-2.744567871E0,2.017150879E0,-7.896270752E-1
2.812500000E-1,-2.416748047E0,2.057830811E0,-6.149597168E-1
2.836303710E-1,-8.973083496E-1,2.577072144E0,-1.974075317E0
2.860412600E-1,-1.184448242E0,2.378463745E0,-3.809371948E0
2.884521490E-1,-2.134399414E0,1.332809448E0,-2.888137817E0
2.908630370E-1,-2.825927734E0,5.886383057E-1,-2.280364990E0
2.932434080E-1,-3.098709106E0,3.086700439E-1,-3.091522217E0
2.956542970E-1,-3.455230713E0,-3.517456055E-1,-5.675781250E0
2.980651860E-1,-4.453048706E0,-1.411758423E0,-5.580062866E0
3.004760740E-1,-5.749954224E0,-2.447860718E0,-5.087142944E0
3.028564450E-1,-7.274185181E0,-3.342773438E0,-4.747360229E0
3.052673340E-1,-8.760131836E0,-3.981658936E0,-5.352737427E0
3.076782230E-1,-1.091366577E1,-4.847854614E0,-5.931808472E0
3.100891110E-1,-1.299781799E1,-5.661422729E0,-5.422134399E0
3.124694830E-1,-1.395973206E1,-5.730804443E0,-4.864608765E0
3.148803710E-1,-1.374676514E1,-5.355133057E0,-5.907882690E0
3.172912600E-1,-1.334716797E1,-5.001007080E0,-7.314865112E0
3.197021490E-1,-1.317008972E1,-4.883758545E0,-8.367706299E0
3.220825200E-1,-1.256710815E1,-4.283157349E0,-9.547363281E0
3.244934080E-1,-1.241635132E1,-3.661026001E0,-1.200718689E1
3.269042970E-1,-1.386161804E1,-3.854843140E0,-1.378744507E1
3.293151860E-1,-1.537388611E1,-5.161315918E0,-1.277049255E1
3.317260740E-1,-1.627836609E1,-6.384048462E0,-1.121037292E1
3.341064450E-1,-1.860658264E1,-7.652252197E0,-8.523239136E0
3.365173340E-1,-2.000639343E1,-7.850845337E0,-6.781265259E0
3.389282230E-1,-2.006860352E1,-7.032501221E0,-5.548950195E0
3.413391110E-1,-2.029592896E1,-6.592224121E0,-6.015548706E0
3.437194830E-1,-2.037249756E1,-6.120834351E0,-6.429519653E0
3.461303710E-1,-1.964985657E1,-5.936599731E0,-6.640075684E0
3.485412600E-1,-1.852763367E1,-5.955734253E0,-6.726226807E0
3.509521490E-1,-1.730010986E1,-5.996414185E0,-6.510864258E0
3.533325200E-1,-1.631427002E1,-6.398406982E0,-6.305084229E0
3.557434080E-1,-1.509631348E1,-6.482162476E0,-5.845672607E0
3.581542970E-1,-1.426123047E1,-6.317047119E0,-5.615951538E0
3.605651860E-1,-1.333520508E1,-6.156738281E0,-5.096710205E0
3.629455570E-1,-1.222972107E1,-6.070587158E0,-4.603790283E0
3.653564450E-1,-1.110031128E1,-5.929412842E0,-4.218551636E0
3.677673340E-1,-9.930221558E0,-5.905487061E0,-3.754333496E0
3.701782230E-1,-8.906082153E0,-5.680557251E0,-3.237487793E0
3.725585940E-1,-7.757537842E0,-5.816955566E0,-2.916854858E0
3.749694830E-1,-6.874572754E0,-5.840881348E0,-2.735000610E0
3.773803710E-1,-6.295516968E0,-5.776275635E0,-2.486145020E0
3.797912600E-1,-5.843276978E0,-5.735595703E0,-2.301895142E0
3.822021490E-1,-5.699707031E0,-5.654235840E0,-2.079360962E0
3.845825200E-1,-5.491531372E0,-6.015548706E0,-2.072189331E0
3.869934080E-1,-5.412567139E0,-5.984451294E0,-1.816146851E0
3.894042970E-1,-5.505889893E0,-6.130416870E0,-2.031509399E0
3.918151860E-1,-5.687744141E0,-6.384048462E0,-2.141571045E0
3.941955570E-1,-5.874374390E0,-6.546768188E0,-2.347366333E0
3.966064450E-1,-6.020339966E0,-6.807586670E0,-2.644073486E0
3.990173340E-1,-6.238082886E0,-6.948760986E0,-2.904891968E0
4.014282230E-1,-6.592224121E0,-7.164108276E0,-3.079559326E0
4.038085940E-1,-6.640075684E0,-7.463211060E0,-3.519836426E0
4.062194830E-1,-6.888931274E0,-7.695312500E0,-3.646667480E0
4.086303710E-1,-7.099502563E0,-7.668991089E0,-3.850051880E0
4.110412600E-1,-7.482360840E0,-7.853240967E0,-4.266403198E0
4.134216310E-1,-7.697708130E0,-7.982452393E0,-4.524826050E0
4.158325200E-1,-7.855636597E0,-8.066207886E0,-4.654037476E0
4.182434080E-1,-7.982452393E0,-8.073379517E0,-4.838287354E0
4.206542970E-1,-8.109283447E0,-8.243270874E0,-5.044067383E0
4.230651860E-1,-8.288742065E0,-8.382064819E0,-5.180465698E0
4.254760740E-1,-8.386840820E0,-8.585449219E0,-5.271392822E0
4.278869630E-1,-8.549560547E0,-8.757736206E0,-5.331207275E0
4.302978520E-1,-8.752944946E0,-8.879760742E0,-5.551345825E0
4.326782230E-1,-8.858230591E0,-8.898910522E0,-5.723632812E0
4.350891110E-1,-8.841476440E0,-8.865402222E0,-5.778671265E0
4.375000000E-1,-8.731414795E0,-8.571090698E0,-5.721237183E0
4.399108890E-1,-8.537597656E0,-8.219345093E0,-5.761917114E0
4.423217770E-1,-8.264816284E0,-8.116455078E0,-5.747558594E0
4.447021490E-1,-7.939392090E0,-8.068603516E0,-5.773880005E0
4.471130370E-1,-7.618743896E0,-8.190628052E0,-5.831314087E0
4.495239260E-1,-7.415359497E0,-8.319839478E0,-5.793029785E0
4.519348150E-1,-7.252639771E0,-8.382064819E0,-5.678161621E0
4.543151860E-1,-7.054046631E0,-8.238494873E0,-5.510665894E0
4.567260740E-1,-6.860229492E0,-8.092529297E0,-5.498703003E0
4.591369630E-1,-6.654434204E0,-8.008773804E0,-5.505889893E0
4.615478520E-1,-6.527618408E0,-7.984848022E0,-5.637496948E0
4.639282230E-1,-6.419937134E0,-7.956130981E0,-5.536987305E0
4.663391110E-1,-6.175872803E0,-7.798202515E0,-5.395812988E0
4.687500000E-1,-5.958129883E0,-7.470397949E0,-5.197204590E0
4.711608890E-1,-5.848052979E0,-7.185653687E0,-5.015350342E0
4.735412600E-1,-5.749954224E0,-6.900894165E0,-4.792816162E0
4.759521490E-1,-5.572891235E0,-6.628112793E0,-4.476974487E0
4.783630370E-1,-5.316848755E0,-6.429519653E0,-4.165908813E0
4.807739260E-1,-5.065612793E0,-6.221343994E0,-3.895507812E0
4.831542970E-1,-4.843078613E0,-6.044265747E0,-3.739974976E0
4.855651860E-1,-4.656433105E0,-5.867202759E0,-3.637084961E0
4.879760740E-1,-4.563110352E0,-5.654235840E0,-3.627517700E0
4.903869630E-1,-4.582260132E0,-5.503494263E0,-3.797409058E0
4.927978520E-1,-4.505691528E0,-5.642272949E0,-4.039077759E0
4.951782230E-1,-4.314254761E0,-5.967697144E0,-4.244873047E0
4.975891110E-1,-4.225723267E0,-6.302688599E0,-4.433898926E0
5.000000000E-1,-4.264007568E0,-6.532409668E0,-4.639678955E0
5.024108890E-1,-4.395614624E0,-6.707077026E0,-4.867004395E0
5.047912600E-1,-4.658828735E0,-6.874572754E0,-5.158920288E0
5.072021490E-1,-5.151748657E0,-7.063613892E0,-5.429321289E0
5.096130370E-1,-5.721237183E0,-7.255035400E0,-5.635101318E0
5.120239260E-1,-6.288345337E0,-7.444076538E0,-5.943771362E0
5.144042970E-1,-6.874572754E0,-7.630706787E0,-6.171096802E0
5.168151860E-1,-7.444076538E0,-7.735992432E0,-6.424728394E0
5.192260740E-1,-7.951354980E0,-7.683349609E0,-6.594619751E0
5.216369630E-1,-8.420349121E0,-7.568496704E0,-6.616149902E0
5.240173340E-1,-8.796020508E0,-7.513458252E0,-6.486938477E0
5.264282230E-1,-8.772094727E0,-7.513458252E0,-6.314666748E0
5.288391110E-1,-8.748153687E0,-7.429718018E0,-6.240478516E0
5.312500000E-1,-8.650054932E0,-7.305282593E0,-5.991622925E0
5.336303710E-1,-8.434707642E0,-7.180862427E0,-5.730804443E0
5.360412600E-1,-8.417953491E0,-7.022933960E0,-5.453247070E0
5.384521490E-1,-8.097305298E0,-6.695114136E0,-5.101501465E0
5.408630370E-1,-8.312667847E0,-5.551345825E0,-4.572677612E0
5.432739260E-1,-7.501495361E0,-6.460617065E0,-4.785644531E0
5.456542970E-1,-6.711868286E0,-6.809967041E0,-4.754531860E0
5.480651860E-1,-5.955734253E0,-7.434494019E0,-4.826324463E0
5.504760740E-1,-5.340774536E0,-7.680953979E0,-4.682754517E0
5.528869630E-1,-5.017745972E0,-7.719253540E0,-4.666000366E0
5.552673340E-1,-4.651641846E0,-7.891525269E0,-4.771286011E0
5.576782230E-1,-3.984054565E0,-8.243270874E0,-5.041671753E0
5.600891110E-1,-3.026916504E0,-8.697906494E0,-5.417343140E0
5.625000000E-1,-2.464614868E0,-9.138183594E0,-5.682952881E0
5.648803710E-1,-1.902297974E0,-9.549758911E0,-5.938980103E0
5.672912600E-1,-1.624725342E0,-9.355941772E0,-6.130416870E0
5.697021490E-1,-1.775466919E0,-9.068801880E0,-6.226119995E0
5.721130370E-1,-7.465667725E-1,-1.060737610E1,-7.070785522E0
5.744934080E-1,5.024871826E-1,-1.181814575E1,-7.688140869E0
5.769042970E-1,1.533798218E0,-1.307438660E1,-8.245666504E0
5.793151860E-1,1.940582275E0,-1.326820374E1,-8.927627563E0
5.817260740E-1,2.572280884E0,-1.321316528E1,-9.379867554E0
5.841064450E-1,2.598602295E0,-1.305284119E1,-9.626327515E0
5.865173340E-1,2.378463745E0,-1.316052246E1,-9.841674805E0
5.889282230E-1,8.733825684E-1,-1.345245361E1,-9.528213501E0
5.913391110E-1,-5.814514160E-1,-1.364147949E1,-9.420547485E0
5.937500000E-1,-3.031707764E0,-1.369172668E1,-9.470794678E0
5.961303710E-1,-5.754745483E0,-1.405065918E1,-9.712463379E0
5.985412600E-1,-7.798202515E0,-1.448854065E1,-1.050927734E1
6.009521490E-1,-9.872787476E0,-1.433540344E1,-1.149990845E1
6.033630370E-1,-1.184686279E1,-1.413679504E1,-1.205026245E1
6.057434080E-1,-1.361994934E1,-1.377069092E1,-1.231346130E1
6.081542970E-1,-1.509153748E1,-1.346441650E1,-1.234217834E1
6.105651860E-1,-1.585244751E1,-1.330169678E1,-1.204067993E1
6.129760740E-1,-1.601756287E1,-1.294995117E1,-1.224407959E1
6.153564450E-1,-1.611326599E1,-1.240678406E1,-1.183969116E1
6.177673340E-1,-1.561077881E1,-1.202154541E1,-1.114337158E1
6.201782230E-1,-1.503410339E1,-1.144726562E1,-1.081794739E1
6.225891110E-1,-1.397886658E1,-1.063848877E1,-1.129173279E1
6.249694830E-1,-1.169132996E1,-9.052047729E0,-1.423490906E1
6.273803710E-1,-1.024845886E1,-7.290924072E0,-1.177029419E1
6.297912600E-1,-9.992431641E0,-6.362518311E0,-2.639282227E0
6.322021490E-1,-8.870193481E0,-5.979660034E0,4.953155518E-1
6.345825200E-1,-8.262420654E0,-5.194824219E0,1.792221069E0
6.369934080E-1,-7.771881104E0,-4.130004883E0,1.507476807E0
6.394042970E-1,-7.350753784E0,-3.115447998E0,1.086334229E0
6.418151860E-1,-7.183258057E0,-2.115249634E0,3.661041260E-1
6.442260740E-1,-7.243072510E0,-1.339981079E0,3.349304199E-2
6.466064450E-1,-7.384246826E0,-7.728881836E-1,-6.532440186E-1
6.490173340E-1,-7.609176636E0,-4.570312500E-1,-4.737854004E-1
6.514282230E-1,-7.805389404E0,-2.368927002E-1,-5.168457031E-1
6.538391110E-1,-8.159530640E0,4.791259766E-3,-3.302154541E-1
6.562194830E-1,-8.647659302E0,3.134613037E-1,-9.567260742E-3
6.586303710E-1,-8.853439331E0,4.450683594E-1,1.770629883E-1
6.610412600E-1,-8.846267700E0,4.929199219E-1,1.483612061E-1
6.634521490E-1,-8.927627563E0,6.077728271E-1,6.604156494E-1
6.658325200E-1,-8.834304810E0,6.436767578E-1,8.327026367E-1
6.682434080E-1,-8.841476440E0,8.518524170E-1,7.489471436E-1
6.706542970E-1,-8.774475098E0,1.098312378E0,9.714813232E-1
6.730651860E-1,-8.640487671E0,1.395019531E0,1.048049927E0
6.754455570E-1,-8.236099243E0,1.572082520E0,8.781585693E-1
6.778564450E-1,-8.358123779E0,1.804183960E0,6.699829102E-1
6.802673340E-1,-7.994415283E0,1.854431152E0,7.298126221E-1
6.826782230E-1,-8.109283447E0,2.048263550E0,7.369842529E-1
6.850585940E-1,-8.200210571E0,2.177474976E0,5.240325928E-1
6.874694830E-1,-8.295913696E0,2.215759277E0,2.991027832E-1
6.898803710E-1,-8.559127808E0,2.189437866E0,-1.914978027E-2
6.922912600E-1,-8.657226562E0,1.998001099E0,-1.962127686E-1
6.947021490E-1,-8.726623535E0,1.663009644E0,-6.508483887E-1
6.970825200E-1,-8.994613647E0,1.349548340E0,-1.141372681E0
6.994934080E-1,-8.477767944E0,9.906311035E-1,-1.701293945E0
7.019042970E-1,-8.480163574E0,7.633056641E-1,-2.129608154E0
7.043151860E-1,-8.410766602E0,6.986999512E-1,-2.447860718E0
7.067260740E-1,-7.824523926E0,7.728881836E-1,-2.672790527E0
7.091369630E-1,-7.185653687E0,8.518524170E-1,-2.878570557E0
7.115478520E-1,-7.259826660E0,7.896270752E-1,-2.957534790E0
7.139587400E-1,-7.795822144E0,6.532440186E-1,-2.914459229E0
7.163391110E-1,-7.625930786E0,6.077728271E-1,-2.624923706E0
7.187500000E-1,-5.489135742E0,1.143768311E0,-2.299499512E0
7.211608890E-1,-4.728210449E0,1.811370850E0,-2.333007812E0
7.235717770E-1,-4.350158691E0,1.701293945E0,-2.141571045E0
7.259521490E-1,-4.299896240E0,1.411758423E0,-1.974075317E0
7.283630370E-1,-4.594223022E0,1.055236816E0,-1.627120972E0
7.307739260E-1,-3.605987549E0,1.536193848E0,-1.476364136E0
7.331848150E-1,-3.658630371E0,1.287338257E0,-1.438079834E0
7.355651860E-1,-3.701690674E0,9.954071045E-1,-1.308868408E0
7.379760740E-1,-3.751953125E0,7.920227051E-1,-1.131805420E0
7.403869630E-1,-3.840484619E0,6.316986084E-1,-1.062408447E0
7.427978520E-1,-4.034301758E0,4.450683594E-1,-1.052841187E0
7.452087400E-1,-4.510467529E0,8.135986328E-2,-1.165298462E0
7.475891110E-1,-5.008178711E0,-2.823486328E-1,-1.459625244E0
7.500000000E-1,-5.580062866E0,-7.752685547E-1,-1.854431152E0
7.524108890E-1,-6.130416870E0,-1.339981079E0,-2.373687744E0
7.548217770E-1,-6.620941162E0,-1.804183960E0,-2.730209351E0
7.572021490E-1,-7.022933960E0,-2.232498169E0,-3.165710449E0
7.596130370E-1,-7.307678223E0,-2.739776611E0,-3.586837769E0
7.620239260E-1,-7.499099731E0,-3.251846313E0,-3.878768921E0
7.644348150E-1,-7.838882446E0,-3.890731812E0,-3.986450195E0
7.668151860E-1,-8.461029053E0,-4.187438965E0,-3.979263306E0
7.692260740E-1,-8.882156372E0,-4.424331665E0,-3.962509155E0
7.716369630E-1,-9.305694580E0,-4.488937378E0,-3.747161865E0
7.740478520E-1,-9.968505859E0,-4.673187256E0,-3.512664795E0
7.764282230E-1,-1.091845703E1,-5.048858643E0,-3.445663452E0
7.788391110E-1,-1.195454407E1,-5.503494263E0,-3.337982178E0
7.812500000E-1,-1.299302673E1,-5.979660034E0,-3.120239258E0
7.836608890E-1,-1.387597656E1,-6.331405640E0,-3.093917847E0
7.860412600E-1,-1.437368774E1,-6.697509766E0,-3.280563354E0
7.884521490E-1,-1.472543335E1,-7.001403809E0,-3.625122070E0
7.908630370E-1,-1.478285217E1,-7.149749756E0,-4.108474731E0
7.932739260E-1,-1.462014771E1,-7.247863770E0,-4.598999023E0
7.956848150E-1,-1.408894348E1,-7.405792236E0,-4.883758545E0
7.980651860E-1,-1.328733826E1,-7.556533813E0,-5.001007080E0
8.004760740E-1,-1.220817566E1,-7.807785034E0,-5.036895752E0
8.028869630E-1,-1.097109985E1,-8.114059448E0,-4.771286011E0
